0.000000
0.000000
0.000000
0.000000
0.000000
0.000000
0.000000
0.000000
0.000000
0.000000
0.000000
0.000000
0.000000
0.000000
0.000000
0.000000
0.000000
0.000000
0.000000
0.000000
0.000000
0.000000
0.000000
0.000000
0.000000
0.000000
0.000000
0.000000
0.000000
0.000000
0.000000
0.000000
0.000000
0.000000
0.000000
0.000000
0.000000
0.000000
0.000000
0.000000
0.000000
0.000000
0.000000
0.000000
0.000000
0.000000
0.000000
0.000000
0.000000
0.000000
0.000000
0.000000
0.000000
0.000000
0.000000
0.000000
0.000000
0.000000
0.000000
0.000000
0.000000
0.000000
0.000000
0.000000
0.000000
0.000000
0.000000
0.000000
0.000000
0.000000
0.000000
0.000000
0.000000
0.000000
0.000000
0.000000
0.000000
0.000000
0.000000
0.000000
0.000000
0.000000
0.000000
0.000000
0.000000
0.000000
0.000000
0.000000
0.000000
0.000000
0.000000
0.000000
0.000000
0.000000
0.000000
0.000000
0.000000
0.000000
0.000000
0.000000
0.000000
0.000000
0.000000
0.000000
0.000000
0.000000
0.000000
0.000000
0.000000
0.000000
0.000000
0.000000
0.000000
0.000000
0.000000
0.000000
0.000000
0.000000
0.000000
0.000000
0.000000
0.000000
0.000000
0.000000
0.000000
0.000000
0.000000
0.000000
0.000000
0.000000
0.000000
0.000000
0.000000
0.000000
0.000000
0.000000
0.000000
0.000000
0.000000
0.000000
0.000000
0.000000
0.000000
0.000000
0.000000
0.000000
0.000000
0.000000
0.000000
0.000000
0.000000
0.000000
0.000000
0.000000
0.000000
0.000000
0.000000
0.000000
0.000000
0.000000
0.000000
0.000000
0.000000
0.000000
0.000000
0.000000
0.000000
0.000000
0.000000
0.000000
0.000000
0.000000
0.000000
0.000000
0.000000
0.000000
0.000000
0.000000
0.000000
0.000000
0.000000
0.000000
0.000000
0.000000
0.000000
0.000000
0.000000
0.000000
0.000000
0.000000
0.000000
0.000000
0.000000
0.000000
0.000000
0.000000
0.000000
0.000000
0.000000
0.000000
0.000000
0.000000
0.000000
0.000000
0.000000
0.000000
0.000000
0.000000
0.000000
0.000000
0.000000
0.000000
0.000000
0.000000
0.000000
0.000000
0.000000
0.000000
0.000000
0.000000
0.000000
0.000000
0.000000
0.000000
0.000000
0.000000
0.000000
0.000000
0.000000
0.000000
0.000000
0.000000
0.000000
0.000000
0.000000
0.000000
0.000000
0.000000
0.000000
0.000000
0.000000
0.000000
0.000000
0.000000
0.000000
-0.000000
0.000000
-0.000000
0.000000
-0.000000
0.000000
-0.000000
0.000001
-0.000001
0.000001
-0.000001
0.000002
-0.000002
0.000003
-0.000004
0.000007
-0.000025
-0.000105
-0.000131
-0.000161
-0.000193
-0.000219
-0.000257
-0.000303
-0.000333
-0.000368
-0.000399
-0.000430
-0.000459
-0.000488
-0.000528
-0.000553
-0.000603
-0.000667
-0.000691
-0.000729
-0.000761
-0.000798
-0.000824
-0.000869
-0.000907
-0.000934
-0.001025
-0.001062
-0.001097
-0.001142
-0.001163
-0.001202
-0.001234
-0.001244
-0.001268
-0.001382
-0.001464
-0.001508
-0.001525
-0.001572
-0.001611
-0.001634
-0.001673
-0.001723
-0.001762
-0.001884
-0.001976
-0.001991
-0.002052
-0.002048
-0.002102
-0.002127
-0.002175
-0.002175
-0.002273
-0.002458
-0.002471
-0.002488
-0.002527
-0.002594
-0.002612
-0.002622
-0.002653
-0.002750
-0.002884
-0.002951
-0.003003
-0.003048
-0.003084
-0.003116
-0.003150
-0.003173
-0.003208
-0.003252
-0.003282
-0.003327
-0.003380
-0.003420
-0.003421
-0.003496
-0.003526
-0.003505
-0.003581
-0.003647
-0.003599
-0.003604
-0.003599
-0.003544
-0.003547
-0.003566
-0.003541
-0.003536
-0.003555
-0.003495
-0.003496
-0.003479
-0.003510
-0.003512
-0.003513
-0.003410
-0.003315
-0.003317
-0.003362
-0.003409
-0.003360
-0.003380
-0.003390
-0.003389
-0.003336
-0.003332
-0.003364
-0.003353
-0.003308
-0.003342
-0.003328
-0.003293
-0.003291
-0.003286
-0.003323
-0.003273
-0.003268
-0.003268
-0.003260
-0.003281
-0.003201
-0.003249
-0.003237
-0.003234
-0.003188
-0.003159
-0.003188
-0.003167
-0.003176
-0.003148
-0.003141
-0.003130
-0.003163
-0.003153
-0.003122
-0.003159
-0.003138
-0.003114
-0.003130
-0.003124
-0.003087
-0.003107
-0.003097
-0.003108
-0.003043
-0.003027
-0.003043
-0.003062
-0.003000
-0.003023
-0.002989
-0.002944
-0.002971
-0.003018
-0.002967
-0.002900
-0.002941
-0.002893
-0.002881
-0.002872
-0.002900
-0.002885
-0.002821
-0.002870
-0.002918
-0.002883
-0.002824
-0.002853
-0.002828
-0.002818
-0.002828
-0.002818
-0.002792
-0.002773
-0.002760
-0.002746
-0.002754
-0.002756
-0.002757
-0.002721
-0.002758
-0.002724
-0.002688
-0.002723
-0.002694
-0.002723
-0.002715
-0.002686
-0.002635
-0.002684
-0.002681
-0.002686
-0.002680
-0.002652
-0.002648
-0.002673
-0.002680
-0.002626
-0.002617
-0.002603
-0.002585
-0.002595
-0.002525
-0.002582
-0.002560
-0.002549
-0.002545
-0.002489
-0.002538
-0.002569
-0.002525
-0.002503
-0.002522
-0.002455
-0.002514
-0.002482
-0.002422
-0.002449
-0.002433
-0.002433
-0.002399
-0.002419
-0.002386
-0.002355
-0.002404
-0.002390
-0.002355
-0.002391
-0.002344
-0.002340
-0.002331
-0.002298
-0.002304
-0.002313
-0.002322
-0.002277
-0.002244
-0.002306
-0.002290
-0.002262
-0.002274
-0.002237
-0.002244
-0.002248
-0.002281
-0.002232
-0.002175
-0.002158
-0.002198
-0.002204
-0.002151
-0.002150
-0.002181
-0.002169
-0.002116
-0.002207
-0.002106
-0.002061
-0.002108
-0.002108
-0.002079
-0.002113
-0.002081
-0.002051
-0.002057
-0.002092
-0.002076
-0.002048
-0.001981
-0.002029
-0.002028
-0.002003
-0.002037
-0.002008
-0.001996
-0.002002
-0.001988
-0.001962
-0.002015
-0.001988
-0.002023
-0.002002
-0.001964
-0.001937
-0.001977
-0.001939
-0.001906
-0.001914
-0.001928
-0.001812
-0.001633
-0.001692
-0.001646
-0.001648
-0.001596
-0.001641
-0.001640
-0.001622
-0.001645
-0.001420
-0.001338
-0.001373
-0.001400
-0.001422
-0.001349
-0.001334
-0.001341
-0.001311
-0.001248
-0.001027
-0.001051
-0.001018
-0.001038
-0.001104
-0.001042
-0.001059
-0.001043
-0.001084
-0.000875
-0.000758
-0.000791
-0.000747
-0.000744
-0.000759
-0.000775
-0.000765
-0.000728
-0.000720
-0.000507
-0.000466
-0.000494
-0.000475
-0.000461
-0.000477
-0.000488
-0.000444
-0.000429
-0.000304
-0.000195
-0.000191
-0.000179
-0.000197
-0.000223
-0.000205
-0.000136
-0.000246
-0.000202
-0.000068
-0.000115
-0.000149
-0.000053
-0.000032
-0.000041
-0.000033
-0.000017
-0.000020
-0.000001
0.000218
0.000191
0.000131
0.000201
0.000215
0.000181
0.000144
0.000172
0.000215
0.000325
0.000425
0.000441
0.000481
0.000434
0.000422
0.000489
0.000452
0.000409
0.000477
0.000633
0.000541
0.000586
0.000616
0.000491
0.000544
0.000549
0.000585
0.000546
0.000673
0.000832
0.000780
0.000803
0.000856
0.000869
0.000792
0.000841
0.000809
0.000866
0.001177
0.001099
0.001210
0.001214
0.001147
0.001207
0.001138
0.001167
0.001183
0.001245
0.001249
0.001332
0.001274
0.001234
0.001310
0.001288
0.001310
0.001266
0.001334
0.001380
0.001431
0.001384
0.001360
0.001453
0.001379
0.001399
0.001411
0.001356
0.001452
0.001562
0.001525
0.001481
0.001535
0.001451
0.001472
0.001460
0.001464
0.001555
0.001484
0.001584
0.001634
0.001633
0.001583
0.001607
0.001595
0.001603
0.001616
0.001580
0.001606
0.001556
0.001593
0.001601
0.001571
0.001565
0.001507
0.001589
0.001547
0.001563
0.001757
0.001688
0.001718
0.001651
0.001643
0.001653
0.001672
0.001611
0.001640
0.001676
0.001614
0.001774
0.001587
0.001627
0.001665
0.001591
0.001689
0.001620
0.001650
0.001751
0.001763
0.001726
0.001763
0.001752
0.001680
0.001751
0.001728
0.001726
0.001755
0.001759
0.001761
0.001686
0.001739
0.001697
0.001732
0.001727
0.001660
0.001709
0.001692
0.001672
0.001668
0.001666
0.001711
0.001688
0.001671
0.001705
0.001666
0.001642
0.001667
0.001670
0.001677
0.001676
0.001761
0.001758
0.001769
0.001769
0.001722
0.001618
0.001586
0.001614
0.001611
0.001670
0.001657
0.001608
0.001677
0.001635
0.001684
0.001675
0.001617
0.001616
0.001614
0.001591
0.001587
0.001647
0.001565
0.001658
0.001485
0.001419
0.001442
0.001414
0.001414
0.001419
0.001422
0.001432
0.001428
0.001391
0.001462
0.001438
0.001443
0.001458
0.001440
0.001445
0.001464
0.001421
0.001406
0.001346
0.001279
0.001310
0.001307
0.001312
0.001282
0.001229
0.001229
0.001272
0.001273
0.001102
0.001027
0.001041
0.001075
0.000974
0.000949
0.000969
0.000999
0.001156
0.000945
0.000916
0.000853
0.001003
0.000680
0.000329
0.000310
0.000502
0.000964
0.000870
0.000835
0.000740
0.000803
0.000776
0.000810
0.000748
0.000758
0.000812
0.000782
0.000692
0.000455
0.000440
0.000417
0.000415
0.000429
0.000413
0.000451
0.000371
0.000421
0.000306
0.000176
0.000219
0.000183
0.000193
0.000202
0.000178
0.000199
0.000172
0.000202
0.000110
0.000038
0.000110
0.000056
0.000074
0.000095
0.000097
0.000035
0.000102
-0.000001
-0.000146
-0.000161
-0.000172
-0.000147
-0.000147
-0.000131
-0.000149
-0.000123
-0.000135
-0.000307
-0.000367
-0.000370
-0.000440
-0.000439
-0.000392
-0.000374
-0.000401
-0.000373
-0.000401
-0.000498
-0.000483
-0.000507
-0.000532
-0.000471
-0.000480
-0.000478
-0.000490
-0.000446
-0.000580
-0.000753
-0.000655
-0.000669
-0.000665
-0.000692
-0.000671
-0.000688
-0.000635
-0.000734
-0.000904
-0.000880
-0.000922
-0.000915
-0.000929
-0.000903
-0.000892
-0.000861
-0.000815
-0.000951
-0.001173
-0.001082
-0.001113
-0.001114
-0.001073
-0.001065
-0.001088
-0.001073
-0.001078
-0.001288
-0.001328
-0.001346
-0.001321
-0.001267
-0.001283
-0.001201
-0.001268
-0.001209
-0.001337
-0.001510
-0.001463
-0.001506
-0.001484
-0.001503
-0.001504
-0.001458
-0.001509
-0.001492
-0.001483
-0.001520
-0.001472
-0.001503
-0.001478
-0.001462
-0.001396
-0.001442
-0.001424
-0.001374
-0.001485
-0.001485
-0.001476
-0.001524
-0.001498
-0.001470
-0.001514
-0.001472
-0.001397
-0.001342
-0.001374
-0.001428
-0.001465
-0.001439
-0.001428
-0.001436
-0.001412
-0.001378
-0.001384
-0.001391
-0.001417
-0.001415
-0.001411
-0.001362
-0.001387
-0.001389
-0.001344
-0.001317
-0.001297
-0.001324
-0.001380
-0.001352
-0.001308
-0.001336
-0.001314
-0.001284
-0.001305
-0.001255
-0.001267
-0.001348
-0.001275
-0.001334
-0.001297
-0.001294
-0.001314
-0.001250
-0.001236
-0.001293
-0.001426
-0.001351
-0.001293
-0.001372
-0.001345
-0.001377
-0.001310
-0.001327
-0.001262
-0.001251
-0.001311
-0.001259
-0.001249
-0.001237
-0.001242
-0.001267
-0.001274
-0.001245
-0.001245
-0.001298
-0.001209
-0.001233
-0.001280
-0.001190
-0.001185
-0.001219
-0.001238
-0.001208
-0.001195
-0.001193
-0.001169
-0.001155
-0.001146
-0.001176
-0.001117
-0.001156
-0.001175
-0.001128
-0.001136
-0.001089
-0.001141
-0.001100
-0.001095
-0.001079
-0.001069
-0.001076
-0.001078
-0.001057
-0.001028
-0.001060
-0.001061
-0.001033
-0.001019
-0.001053
-0.001073
-0.001074
-0.001020
-0.001003
-0.001070
-0.001030
-0.001020
-0.000988
-0.000947
-0.000989
-0.000928
-0.000930
-0.000973
-0.000985
-0.000998
-0.001006
-0.000992
-0.000965
-0.000978
-0.001021
-0.000972
-0.000935
-0.000902
-0.000911
-0.000902
-0.000872
-0.000949
-0.000885
-0.000886
-0.000888
-0.000880
-0.000882
-0.000874
-0.000845
-0.000855
-0.000894
-0.000896
-0.000840
-0.000825
-0.000829
-0.000818
-0.000827
-0.000842
-0.000814
-0.000782
-0.000839
-0.000855
-0.000823
-0.000810
-0.000786
-0.000793
-0.000802
-0.000804
-0.000812
-0.000767
-0.000783
-0.000788
-0.000775
-0.000788
-0.000752
-0.000786
-0.000744
-0.000722
-0.000753
-0.000727
-0.000721
-0.000717
-0.000760
-0.000720
-0.000698
-0.000673
-0.000734
-0.000697
-0.000684
-0.000714
-0.000658
-0.000679
-0.000708
-0.000690
-0.000610
-0.000666
-0.000684
-0.000633
-0.000678
-0.000652
-0.000670
-0.000655
-0.000618
-0.000627
-0.000640
-0.000607
-0.000611
-0.000580
-0.000595
-0.000577
-0.000587
-0.000639
-0.000558
-0.000599
-0.000546
-0.000579
-0.000552
-0.000581
-0.000615
-0.000520
-0.000554
-0.000513
-0.000561
-0.000543
-0.000544
-0.000530
-0.000535
-0.000554
-0.000551
-0.000543
-0.000500
-0.000513
-0.000527
-0.000524
-0.000520
-0.000513
-0.000517
-0.000545
-0.000529
-0.000517
-0.000476
-0.000516
-0.000493
-0.000400
-0.000491
-0.000438
-0.000437
-0.000481
-0.000471
-0.000428
-0.000444
-0.000465
-0.000410
-0.000439
-0.000430
-0.000422
-0.000450
-0.000403
-0.000401
-0.000423
-0.000430
-0.000442
-0.000417
-0.000465
-0.000382
-0.000388
-0.000446
-0.000457
-0.000432
-0.000419
-0.000442
-0.000389
-0.000442
-0.000383
-0.000349
-0.000386
-0.000290
-0.000322
-0.000347
-0.000387
-0.000375
-0.000357
-0.000337
-0.000306
-0.000314
-0.000319
-0.000279
-0.000293
-0.000273
-0.000271
-0.000287
-0.000233
-0.000243
-0.000232
-0.000266
-0.000283
-0.000278
-0.000234
-0.000265
-0.000277
-0.000266
-0.000329
-0.000283
-0.000270
-0.000258
-0.000270
-0.000273
-0.000231
-0.000212
-0.000239
-0.000250
-0.000274
-0.000275
-0.000256
-0.000246
-0.000255
-0.000210
-0.000224
-0.000246
-0.000186
-0.000196
-0.000187
-0.000212
-0.000211
-0.000205
-0.000201
-0.000185
-0.000240
-0.000203
-0.000208
-0.000211
-0.000278
-0.000318
-0.000337
-0.000404
-0.000443
-0.000472
-0.000417
-0.000489
-0.000431
-0.000449
-0.000671
-0.000661
-0.000679
-0.000655
-0.000565
-0.000545
-0.000578
-0.000655
-0.000521
-0.000676
-0.000948
-0.000860
-0.000892
-0.000853
-0.000622
-0.000521
-0.000522
-0.000272
0.000055
-0.000065
-0.000079
-0.000054
-0.000017
0.000338
0.000581
0.000736
0.000752
0.001009
0.001114
0.001042
0.001056
0.000972
0.001075
0.001310
0.001412
0.001430
0.001316
0.001284
0.001618
0.001503
0.001423
0.001601
0.001827
0.002054
0.002216
0.002112
0.001497
0.001492
0.001785
0.001586
0.001735
0.002031
0.002136
0.002065
0.002151
0.001099
-0.000532
-0.000326
-0.000452
-0.000634
-0.000180
0.000126
0.000048
-0.000068
-0.000016
-0.001828
-0.002819
-0.002353
-0.002505
-0.002169
-0.001689
-0.001374
-0.001599
-0.001490
-0.001903
-0.003643
-0.003897
-0.003706
-0.003898
-0.003815
-0.003792
-0.003967
-0.004389
-0.004382
-0.004699
-0.005394
-0.005446
-0.005270
-0.005519
-0.005583
-0.005854
-0.005857
-0.006215
-0.005396
-0.002406
-0.002238
-0.002237
-0.001964
-0.002403
-0.002721
-0.003000
-0.002712
-0.003369
-0.000834
0.002259
0.001686
0.001972
0.001783
0.001389
0.000786
0.000851
0.000731
0.000633
0.005298
0.007096
0.006334
0.006726
0.006186
0.006027
0.005397
0.005997
0.005065
0.006913
0.011770
0.011496
0.011296
0.011185
0.010931
0.010619
0.010341
0.010551
0.009587
0.014077
0.017277
0.016118
0.016375
0.015737
0.015727
0.015031
0.015338
0.014574
0.015419
0.020974
0.021479
0.021003
0.021092
0.020605
0.020682
0.020084
0.020612
0.019419
0.023282
0.027779
0.026685
0.027043
0.026419
0.026308
0.025724
0.025719
0.025367
0.025194
0.030987
0.032333
0.031312
0.031605
0.030765
0.030936
0.030118
0.030622
0.029446
0.032204
0.037674
0.036948
0.037048
0.036947
0.036868
0.036734
0.036565
0.036944
0.036452
0.041946
0.044902
0.043827
0.044496
0.044009
0.044368
0.043962
0.044568
0.043920
0.045794
0.051927
0.052243
0.052280
0.052796
0.052737
0.052980
0.052924
0.053505
0.052862
0.058139
0.062786
0.062020
0.062760
0.062850
0.063191
0.062823
0.063418
0.063212
0.064161
0.070549
0.071907
0.071276
0.071836
0.071899
0.072608
0.072370
0.073149
0.072480
0.076844
0.082393
0.081702
0.082319
0.082106
0.082365
0.082271
0.082299
0.082132
0.082046
0.088865
0.091116
0.089767
0.090585
0.090202
0.090774
0.090113
0.090690
0.089391
0.092024
0.098935
0.098245
0.098042
0.097982
0.097703
0.097656
0.096895
0.096974
0.095816
0.101136
0.104565
0.102868
0.103262
0.102221
0.102160
0.101658
0.101699
0.101052
0.102093
0.107422
0.107836
0.107395
0.107694
0.106848
0.106725
0.106556
0.106986
0.106773
0.109226
0.111723
0.111680
0.111930
0.111831
0.111509
0.111256
0.110864
0.110190
0.109178
0.104576
0.102430
0.102184
0.101424
0.101321
0.100654
0.100868
0.099716
0.100226
0.096952
0.090412
0.090276
0.089938
0.089883
0.089320
0.089155
0.089265
0.088567
0.089100
0.082198
0.078079
0.079164
0.078330
0.078816
0.077912
0.078300
0.077498
0.078162
0.076208
0.068326
0.067951
0.068100
0.067640
0.067630
0.066877
0.067229
0.066290
0.067440
0.061661
0.056074
0.057197
0.056455
0.056899
0.056244
0.056476
0.056108
0.056118
0.055172
0.047437
0.045736
0.046388
0.045628
0.045904
0.044947
0.045559
0.044834
0.046013
0.041770
0.035316
0.036192
0.035623
0.035976
0.035847
0.035793
0.035553
0.035355
0.035456
0.028161
0.025096
0.026005
0.025470
0.026240
0.025492
0.025753
0.024976
0.026263
0.023630
0.016632
0.016871
0.016786
0.016872
0.016527
0.015916
0.016226
0.016006
0.017256
0.010296
0.005894
0.006883
0.006140
0.005876
0.004002
0.004435
0.004918
0.007298
0.005933
-0.001503
-0.002399
-0.001949
-0.002192
-0.002095
-0.002747
-0.002104
-0.002354
-0.000923
-0.005913
-0.011659
-0.010769
-0.011212
-0.010497
-0.010843
-0.010759
-0.010795
-0.010307
-0.010452
-0.017510
-0.020208
-0.019650
-0.020024
-0.019631
-0.020088
-0.019399
-0.019874
-0.018687
-0.022180
-0.028956
-0.028629
-0.028503
-0.028237
-0.028127
-0.028108
-0.028140
-0.028244
-0.027112
-0.033846
-0.037520
-0.036111
-0.036663
-0.036026
-0.036513
-0.035679
-0.036372
-0.035222
-0.037620
-0.045402
-0.045233
-0.044793
-0.045007
-0.044715
-0.044762
-0.044214
-0.044637
-0.043403
-0.049477
-0.054710
-0.053443
-0.054283
-0.053624
-0.053747
-0.053421
-0.053506
-0.053141
-0.054158
-0.060530
-0.061844
-0.061431
-0.061593
-0.061067
-0.061218
-0.060931
-0.060616
-0.060059
-0.059915
-0.059645
-0.058965
-0.058481
-0.058272
-0.057995
-0.058189
-0.057865
-0.057553
-0.057346
-0.055641
-0.054722
-0.054627
-0.054188
-0.054142
-0.054021
-0.054130
-0.053679
-0.053651
-0.052912
-0.050484
-0.050408
-0.050284
-0.050149
-0.050174
-0.049771
-0.049877
-0.049538
-0.049697
-0.047882
-0.046394
-0.046811
-0.046454
-0.046435
-0.046121
-0.046252
-0.046226
-0.046072
-0.045724
-0.043417
-0.042900
-0.043102
-0.042867
-0.042954
-0.042856
-0.042911
-0.042478
-0.042528
-0.041121
-0.039386
-0.039550
-0.039414
-0.039132
-0.038960
-0.039014
-0.038786
-0.038821
-0.038618
-0.036598
-0.035806
-0.035912
-0.035674
-0.035432
-0.035397
-0.035355
-0.034796
-0.035267
-0.034387
-0.032890
-0.032755
-0.032566
-0.032529
-0.032439
-0.032585
-0.032371
-0.032245
-0.032541
-0.031972
-0.031849
-0.031853
-0.031717
-0.031787
-0.031655
-0.031572
-0.031285
-0.031302
-0.031074
-0.030918
-0.031075
-0.030908
-0.030740
-0.030592
-0.030535
-0.030321
-0.030179
-0.030222
-0.030042
-0.030114
-0.030091
-0.029858
-0.029901
-0.029891
-0.029937
-0.029739
-0.029703
-0.029731
-0.029623
-0.029638
-0.029491
-0.029362
-0.029318
-0.029370
-0.029344
-0.029080
-0.029060
-0.028956
-0.028873
-0.028800
-0.028584
-0.028414
-0.028231
-0.028215
-0.028005
-0.027973
-0.028040
-0.027905
-0.027864
-0.027753
-0.027748
-0.027540
-0.027572
-0.027633
-0.027556
-0.027694
-0.027516
-0.027396
-0.027209
-0.027146
-0.027226
-0.027036
-0.026969
-0.026858
-0.026896
-0.026765
-0.026584
-0.026626
-0.026377
-0.026204
-0.026220
-0.026020
-0.025980
-0.025968
-0.025981
-0.025905
-0.026010
-0.026097
-0.025772
-0.025816
-0.025674
-0.025535
-0.025535
-0.025471
-0.025439
-0.025371
-0.025582
-0.025414
-0.025227
-0.025096
-0.024831
-0.024842
-0.024675
-0.024568
-0.024371
-0.024332
-0.024407
-0.024181
-0.024140
-0.023951
-0.023875
-0.023890
-0.023701
-0.023628
-0.023428
-0.023515
-0.023498
-0.023462
-0.023417
-0.023233
-0.023384
-0.023336
-0.023330
-0.023278
-0.023090
-0.023133
-0.023012
-0.022863
-0.022779
-0.022744
-0.022758
-0.022651
-0.022540
-0.022373
-0.022179
-0.022099
-0.022052
-0.021970
-0.021905
-0.021852
-0.021843
-0.021748
-0.021746
-0.021585
-0.021472
-0.021447
-0.021364
-0.021415
-0.021357
-0.021398
-0.021340
-0.021148
-0.021135
-0.021027
-0.020827
-0.020923
-0.020994
-0.020954
-0.020851
-0.020827
-0.020712
-0.020585
-0.020577
-0.020424
-0.020343
-0.020353
-0.020268
-0.020243
-0.020254
-0.020118
-0.020102
-0.019977
-0.019885
-0.019846
-0.019856
-0.019862
-0.019763
-0.019859
-0.019779
-0.019755
-0.019716
-0.019601
-0.019525
-0.019403
-0.019386
-0.019280
-0.019239
-0.019237
-0.019025
-0.019015
-0.018929
-0.018715
-0.018683
-0.018529
-0.018470
-0.018304
-0.018358
-0.018279
-0.018163
-0.018276
-0.018032
-0.017965
-0.018028
-0.017895
-0.017937
-0.017871
-0.017841
-0.017722
-0.017717
-0.017801
-0.017497
-0.017555
-0.017555
-0.017422
-0.017402
-0.017321
-0.017257
-0.017048
-0.017089
-0.016948
-0.016731
-0.016876
-0.016705
-0.016713
-0.016640
-0.016487
-0.016446
-0.016333
-0.016428
-0.016232
-0.016143
-0.016172
-0.016105
-0.016154
-0.016025
-0.016054
-0.016038
-0.015953
-0.015954
-0.015768
-0.015762
-0.015695
-0.015742
-0.015648
-0.015522
-0.015591
-0.015435
-0.015473
-0.015410
-0.015205
-0.015211
-0.015167
-0.015265
-0.015134
-0.015154
-0.015164
-0.015035
-0.015145
-0.015010
-0.014875
-0.014817
-0.014897
-0.014901
-0.014794
-0.014850
-0.014685
-0.014673
-0.014681
-0.014383
-0.014273
-0.014226
-0.014261
-0.014255
-0.014204
-0.014133
-0.013992
-0.014087
-0.013992
-0.013744
-0.013656
-0.013693
-0.013745
-0.013742
-0.013729
-0.013586
-0.013572
-0.013564
-0.013385
-0.013332
-0.013326
-0.013303
-0.013382
-0.013334
-0.013177
-0.013003
-0.013085
-0.012990
-0.012825
-0.012772
-0.012702
-0.012726
-0.012718
-0.012707
-0.012437
-0.012348
-0.012393
-0.012245
-0.012147
-0.012155
-0.012077
-0.012085
-0.012061
-0.011971
-0.011798
-0.011805
-0.011783
-0.011608
-0.011675
-0.011678
-0.011647
-0.011638
-0.011648
-0.011549
-0.011508
-0.011559
-0.011380
-0.011299
-0.011302
-0.011294
-0.011254
-0.011190
-0.011217
-0.011140
-0.011106
-0.011105
-0.010883
-0.010734
-0.010811
-0.010742
-0.010742
-0.010693
-0.010626
-0.010536
-0.010456
-0.010411
-0.009874
-0.009668
-0.009662
-0.009525
-0.009502
-0.009454
-0.009406
-0.009201
-0.009196
-0.008860
-0.008207
-0.008158
-0.008080
-0.007998
-0.007939
-0.007883
-0.007812
-0.007665
-0.007683
-0.007087
-0.006606
-0.006685
-0.006586
-0.006573
-0.006560
-0.006497
-0.006425
-0.006354
-0.006099
-0.005354
-0.005176
-0.005248
-0.005215
-0.005205
-0.005119
-0.005148
-0.005054
-0.005043
-0.004514
-0.003838
-0.003902
-0.003878
-0.003916
-0.003915
-0.003870
-0.003809
-0.003706
-0.003658
-0.002961
-0.002555
-0.002741
-0.002695
-0.002767
-0.002709
-0.002689
-0.002615
-0.002603
-0.002295
-0.001582
-0.001514
-0.001525
-0.001598
-0.001655
-0.001628
-0.001598
-0.001493
-0.001497
-0.000877
-0.000374
-0.000471
-0.000463
-0.000492
-0.000548
-0.000478
-0.000392
-0.000439
-0.000274
0.000379
0.000539
0.000469
0.000483
0.000383
0.000434
0.000512
0.000478
0.000443
0.000893
0.001386
0.001255
0.001259
0.001314
0.001262
0.001272
0.001336
0.001389
0.001400
0.001904
0.002127
0.002031
0.002043
0.002032
0.002059
0.002044
0.002086
0.002026
0.002285
0.002826
0.002810
0.002799
0.002814
0.002764
0.002861
0.002892
0.002847
0.002886
0.003336
0.003639
0.003551
0.003586
0.003591
0.003608
0.003564
0.003644
0.003567
0.003693
0.004268
0.004353
0.004244
0.004255
0.004269
0.004208
0.004138
0.004223
0.004127
0.004504
0.004935
0.004860
0.004822
0.004832
0.004832
0.004764
0.004734
0.004743
0.004768
0.005112
0.005336
0.005259
0.005285
0.005230
0.005120
0.005103
0.005151
0.005047
0.005348
0.005902
0.005929
0.005819
0.005888
0.005898
0.005804
0.005790
0.005827
0.005839
0.006296
0.006662
0.006622
0.006571
0.006614
0.006542
0.006463
0.006544
0.006503
0.006706
0.007243
0.007432
0.007379
0.007464
0.007448
0.007362
0.007355
0.007461
0.007391
0.007884
0.008541
0.008478
0.008541
0.008500
0.008516
0.008465
0.008469
0.008477
0.008526
0.009036
0.009279
0.009197
0.009213
0.009133
0.009066
0.008978
0.008978
0.008928
0.009085
0.009485
0.009528
0.009486
0.009397
0.009310
0.009196
0.009127
0.009079
0.009049
0.009360
0.009636
0.009534
0.009463
0.009394
0.009279
0.009226
0.009090
0.009072
0.009109
0.009414
0.009644
0.009537
0.009534
0.009444
0.009317
0.009248
0.009230
0.009238
0.009333
0.009749
0.009794
0.009709
0.009709
0.009566
0.009540
0.009545
0.009587
0.009653
0.010010
0.010395
0.010420
0.010478
0.010522
0.010467
0.010478
0.010517
0.010534
0.010629
0.011040
0.011167
0.011168
0.011235
0.011249
0.011257
0.011239
0.011230
0.011236
0.011463
0.011760
0.011824
0.011780
0.011797
0.011824
0.011705
0.011694
0.011614
0.011647
0.011937
0.011959
0.011904
0.011894
0.011884
0.011828
0.011705
0.011622
0.011524
0.011567
0.011716
0.011706
0.011629
0.011559
0.011516
0.011405
0.011223
0.011112
0.011111
0.011197
0.011153
0.011041
0.010953
0.010866
0.010835
0.010659
0.010545
0.010416
0.010399
0.010398
0.010258
0.010210
0.010083
0.010068
0.009942
0.009850
0.009802
0.009711
0.009730
0.009785
0.009686
0.009734
0.009639
0.009548
0.009537
0.009443
0.009337
0.009263
0.009298
0.009247
0.009192
0.009132
0.009152
0.009167
0.009186
0.009250
0.009269
0.009380
0.009529
0.009510
0.009590
0.009620
0.009698
0.009725
0.009747
0.009753
0.009767
0.009864
0.009848
0.009876
0.009928
0.009957
0.009942
0.009973
0.009954
0.009938
0.009992
0.010109
0.010153
0.010124
0.010172
0.010180
0.010185
0.010116
0.010051
0.010035
0.010051
0.010033
0.009901
0.009941
0.009881
0.009972
0.009708
0.009735
0.009678
0.009752
0.009593
0.009120
0.009045
0.009160
0.009666
0.009506
0.009504
0.009397
0.009366
0.009311
0.009227
0.009144
0.009007
0.008964
0.008957
0.008806
0.008731
0.008639
0.008616
0.008537
0.008347
0.008318
0.008240
0.008178
0.008139
0.008049
0.007911
0.007831
0.007795
0.007841
0.007733
0.007646
0.007572
0.007518
0.007453
0.007351
0.007305
0.007209
0.007192
0.007065
0.006951
0.006954
0.006830
0.006889
0.006891
0.006870
0.006864
0.006891
0.006915
0.006872
0.006908
0.006830
0.006842
0.006860
0.006844
0.006873
0.006841
0.006809
0.006794
0.006777
0.006813
0.006743
0.006683
0.006739
0.006762
0.006781
0.006724
0.006758
0.006692
0.006708
0.006585
0.006496
0.006514
0.006522
0.006460
0.006371
0.006364
0.006135
0.006151
0.006131
0.006087
0.006014
0.005970
0.005956
0.005919
0.005848
0.005800
0.005769
0.005736
0.005712
0.005588
0.005534
0.005485
0.005406
0.005393
0.005333
0.005310
0.005250
0.005171
0.005120
0.005073
0.005014
0.004964
0.004872
0.004827
0.004726
0.004558
0.004483
0.004471
0.004440
0.004299
0.004304
0.004207
0.004114
0.004102
0.004018
0.003877
0.003842
0.003776
0.003650
0.003582
0.003516
0.003443
0.003326
0.003294
0.003119
0.003033
0.002985
0.002898
0.002901
0.002946
0.002927
0.002915
0.002923
0.002950
0.002891
0.002916
0.002865
0.002847
0.002869
0.002800
0.002834
0.002843
0.002835
0.002686
0.002651
0.002671
0.002642
0.002639
0.002648
0.002629
0.002608
0.002576
0.002570
0.002496
0.002540
0.002544
0.002510
0.002508
0.002440
0.002496
0.002455
0.002478
0.002352
0.002316
0.002289
0.002139
0.002131
0.002113
0.002161
0.002136
0.002093
0.002098
0.002103
0.002109
0.002086
0.002079
0.002021
0.002035
0.002018
0.001972
0.002000
0.001880
0.001693
0.001754
0.001777
0.001723
0.001681
0.001663
0.001730
0.001632
0.001677
0.001552
0.001461
0.001491
0.001462
0.001483
0.001426
0.001424
0.001385
0.001354
0.001290
0.001192
0.001142
0.001140
0.001105
0.001081
0.001088
0.001063
0.001062
0.001063
0.000840
0.000734
0.000764
0.000688
0.000735
0.000766
0.000721
0.000697
0.000740
0.000684
0.000461
0.000446
0.000478
0.000431
0.000470
0.000420
0.000418
0.000453
0.000478
0.000358
0.000170
0.000202
0.000219
0.000186
0.000192
0.000167
0.000168
0.000160
0.000181
-0.000046
-0.000149
-0.000091
-0.000102
-0.000046
-0.000124
-0.000043
-0.000090
-0.000059
-0.000157
-0.000345
-0.000314
-0.000308
-0.000304
-0.000385
-0.000347
-0.000331
-0.000346
-0.000321
-0.000508
-0.000644
-0.000624
-0.000577
-0.000558
-0.000621
-0.000540
-0.000623
-0.000548
-0.000667
-0.000843
-0.000781
-0.000820
-0.000763
-0.000786
-0.000812
-0.000851
-0.000865
-0.000844
-0.001023
-0.001123
-0.001052
-0.001089
-0.001064
-0.001072
-0.001012
-0.001059
-0.001011
-0.001158
-0.001582
-0.001577
-0.001539
-0.001553
-0.001527
-0.001519
-0.001516
-0.001550
-0.001541
-0.001630
-0.001799
-0.001772
-0.001763
-0.001764
-0.001770
-0.001737
-0.001764
-0.001773
-0.001748
-0.001939
-0.002014
-0.002001
-0.001983
-0.001980
-0.001971
-0.001953
-0.001983
-0.001918
-0.002056
-0.002187
-0.002189
-0.002173
-0.002149
-0.002187
-0.002172
-0.002211
-0.002201
-0.002124
-0.002214
-0.002278
-0.002220
-0.002266
-0.002250
-0.002219
-0.002207
-0.002232
-0.002258
-0.002235
-0.002482
-0.002455
-0.002450
-0.002408
-0.002423
-0.002452
-0.002399
-0.002467
-0.002369
-0.002564
-0.002686
-0.002628
-0.002597
-0.002653
-0.002650
-0.002674
-0.002650
-0.002613
-0.002612
-0.002765
-0.002897
-0.002831
-0.002802
-0.002827
-0.002845
-0.002758
-0.002804
-0.002731
-0.002799
-0.003028
-0.003045
-0.002986
-0.002972
-0.002996
-0.002995
-0.002972
-0.002978
-0.002952
-0.003044
-0.003115
-0.003044
-0.002947
-0.002946
-0.003056
-0.002990
-0.003027
-0.002931
-0.003033
-0.003290
-0.003259
-0.003259
-0.003288
-0.003277
-0.003251
-0.003162
-0.003213
-0.003199
-0.003296
-0.003493
-0.003406
-0.003442
-0.003383
-0.003360
-0.003375
-0.003393
-0.003373
-0.003383
-0.003585
-0.003625
-0.003597
-0.003544
-0.003537
-0.003579
-0.003549
-0.003540
-0.003507
-0.003555
-0.003780
-0.003707
-0.003718
-0.003717
-0.003705
-0.003731
-0.003667
-0.003700
-0.003627
-0.003815
-0.003912
-0.003917
-0.003907
-0.003849
-0.003904
-0.003883
-0.003890
-0.003787
-0.003866
-0.004018
-0.004012
-0.004052
-0.004041
-0.003962
-0.003967
-0.003983
-0.003917
-0.003932
-0.004073
-0.004212
-0.004131
-0.004145
-0.004104
-0.004104
-0.004105
-0.004077
-0.004092
-0.004073
-0.004310
-0.004275
-0.004247
-0.004311
-0.004278
-0.004263
-0.004220
-0.004240
-0.004186
-0.004322
-0.004488
-0.004417
-0.004374
-0.004396
-0.004382
-0.004348
-0.004353
-0.004354
-0.004372
-0.004627
-0.004629
-0.004634
-0.004668
-0.004690
-0.004717
-0.004671
-0.004732
-0.004800
-0.004774
-0.004799
-0.004807
-0.004825
-0.004876
-0.004894
-0.004862
-0.004831
-0.004861
-0.004904
-0.004948
-0.004946
-0.004943
-0.004964
-0.004972
-0.004967
-0.004994
-0.004992
-0.005020
-0.004994
-0.005075
-0.005140
-0.005084
-0.005082
-0.005099
-0.005114
-0.005168
-0.005141
-0.005164
-0.005149
-0.005159
-0.005222
-0.005166
-0.005178
-0.005188
-0.005201
-0.005135
-0.005235
-0.005289
-0.005229
-0.005222
-0.005237
-0.005247
-0.005204
-0.005246
-0.005287
-0.005301
-0.005284
-0.005260
-0.005259
-0.005237
-0.005269
-0.005288
-0.005276
-0.005258
-0.005255
-0.005223
-0.005271
-0.005277
-0.005275
-0.005261
-0.005304
-0.005262
-0.005230
-0.005267
-0.005219
-0.005256
-0.005245
-0.005221
-0.005225
-0.005222
-0.005213
-0.005206
-0.005233
-0.005248
-0.005143
-0.005151
-0.005169
-0.005121
-0.005130
-0.005100
-0.005087
-0.005070
-0.005064
-0.005055
-0.005032
-0.005025
-0.005001
-0.004986
-0.005009
-0.004897
-0.004931
-0.004899
-0.004891
-0.004936
-0.004897
-0.004807
-0.004771
-0.004817
-0.004759
-0.004725
-0.004739
-0.004706
-0.004653
-0.004642
-0.004595
-0.004585
-0.004562
-0.004498
-0.004539
-0.004497
-0.004429
-0.004433
-0.004381
-0.004387
-0.004319
-0.004308
-0.004320
-0.004288
-0.004228
-0.004207
-0.004177
-0.004155
-0.004121
-0.004062
-0.004020
-0.003984
-0.003935
-0.003923
-0.003890
-0.003873
-0.003846
-0.003782
-0.003762
-0.003724
-0.003667
-0.003664
-0.003690
-0.003637
-0.003604
-0.003532
-0.003529
-0.003461
-0.003425
-0.003395
-0.003341
-0.003319
-0.003272
-0.003245
-0.003214
-0.003180
-0.003166
-0.003105
-0.003036
-0.003004
-0.002998
-0.002936
-0.002875
-0.002901
-0.002786
-0.002774
-0.002780
-0.002762
-0.002701
-0.002697
-0.002764
-0.002696
-0.002706
-0.002687
-0.002705
-0.002785
-0.002717
-0.002635
-0.002645
-0.002640
-0.002625
-0.002669
-0.002587
-0.002600
-0.002616
-0.002628
-0.002573
-0.002626
-0.002595
-0.002543
-0.002580
-0.002553
-0.002529
-0.002585
-0.002540
-0.002487
-0.002510
-0.002516
-0.002530
-0.002460
-0.002459
-0.002486
-0.002463
-0.002450
-0.002486
-0.002432
-0.002387
-0.002406
-0.002438
-0.002429
-0.002432
-0.002383
-0.002357
-0.002365
-0.002369
-0.002324
-0.002320
-0.002348
-0.002369
-0.002287
-0.002312
-0.002310
-0.002298
-0.002291
-0.002271
-0.002105
-0.001999
-0.002035
-0.001998
-0.002003
-0.001951
-0.001983
-0.002014
-0.001967
-0.001916
-0.001733
-0.001722
-0.001705
-0.001683
-0.001714
-0.001688
-0.001651
-0.001614
-0.001665
-0.001559
-0.001433
-0.001451
-0.001374
-0.001420
-0.001344
-0.001370
-0.001384
-0.001375
-0.001406
-0.001155
-0.001120
-0.001130
-0.001104
-0.001129
-0.001110
-0.001115
-0.001078
-0.001129
-0.001013
-0.000794
-0.000857
-0.000865
-0.000871
-0.000858
-0.000826
-0.000853
-0.000862
-0.000823
-0.000622
-0.000573
-0.000575
-0.000575
-0.000565
-0.000543
-0.000532
-0.000474
-0.000578
-0.000493
-0.000403
-0.000419
-0.000426
-0.000460
-0.000434
-0.000435
-0.000372
-0.000434
-0.000432
-0.000305
-0.000111
-0.000101
-0.000117
-0.000134
-0.000133
-0.000143
-0.000156
-0.000134
-0.000150
0.000115
0.000151
0.000090
0.000136
0.000124
0.000117
0.000087
0.000156
0.000182
0.000131
0.000265
0.000267
0.000249
0.000225
0.000268
0.000286
0.000253
0.000316
0.000245
0.000459
0.000513
0.000444
0.000512
0.000517
0.000509
0.000465
0.000447
0.000445
0.000535
0.000873
0.000858
0.000839
0.000853
0.000852
0.000831
0.000852
0.000894
0.000841
0.000932
0.001005
0.001018
0.001046
0.001001
0.000945
0.000999
0.000953
0.000891
0.000984
0.000960
0.001113
0.000974
0.000998
0.000960
0.001086
0.000951
0.000488
0.000478
0.000685
0.001263
0.001158
0.001222
0.001197
0.001228
0.001215
0.001213
0.001240
0.001193
0.001320
0.001337
0.001317
0.001288
0.001315
0.001322
0.001272
0.001324
0.001274
0.001351
0.001312
0.001272
0.001328
0.001329
0.001302
0.001309
0.001349
0.001310
0.001262
0.001335
0.001359
0.001351
0.001374
0.001344
0.001403
0.001381
0.001363
0.001338
0.001350
0.001394
0.001367
0.001357
0.001352
0.001341
0.001359
0.001343
0.001356
0.001361
0.001412
0.001467
0.001459
0.001466
0.001449
0.001470
0.001438
0.001433
0.001457
0.001437
0.001422
0.001402
0.001473
0.001413
0.001361
0.001355
0.001359
0.001357
0.001376
0.001381
0.001388
0.001400
0.001385
0.001393
0.001408
0.001348
0.001376
0.001382
0.001349
0.001329
0.001321
0.001352
0.001357
0.001358
0.001361
0.001349
0.001369
0.001370
0.001332
0.001227
0.001201
0.001239
0.001227
0.001218
0.001265
0.001237
0.001220
0.001254
0.001230
0.001280
0.001241
0.001240
0.001239
0.001237
0.001243
0.001175
0.001181
0.001199
0.001066
0.001093
0.001093
0.001064
0.001085
0.001055
0.001070
0.001079
0.001111
0.001057
0.001088
0.001081
0.001079
0.001044
0.001029
0.001044
0.001048
0.001095
0.001022
0.000966
0.000948
0.000898
0.000917
0.000874
0.000902
0.000890
0.000875
0.000902
0.000897
0.000791
0.000802
0.000788
0.000783
0.000803
0.000742
0.000784
0.000783
0.000823
0.000743
0.000670
0.000710
0.000661
0.000666
0.000654
0.000656
0.000659
0.000660
0.000649
0.000530
0.000512
0.000548
0.000527
0.000546
0.000492
0.000534
0.000480
0.000513
0.000371
0.000103
0.000136
0.000137
0.000148
0.000153
0.000164
0.000142
0.000166
0.000175
-0.000036
-0.000131
-0.000088
-0.000041
-0.000052
-0.000088
-0.000039
-0.000044
-0.000039
-0.000079
-0.000151
-0.000176
-0.000165
-0.000188
-0.000215
-0.000171
-0.000196
-0.000209
-0.000162
-0.000337
-0.000451
-0.000431
-0.000429
-0.000387
-0.000409
-0.000416
-0.000396
-0.000402
-0.000396
-0.000631
-0.000658
-0.000649
-0.000649
-0.000618
-0.000649
-0.000605
-0.000707
-0.000670
-0.000726
-0.000739
-0.000681
-0.000706
-0.000776
-0.000734
-0.000704
-0.000736
-0.000687
-0.000720
-0.000912
-0.000959
-0.000910
-0.000931
-0.000912
-0.000912
-0.000929
-0.000932
-0.000896
-0.000960
-0.001200
-0.001124
-0.001145
-0.001171
-0.001137
-0.001130
-0.001095
-0.001132
-0.001107
-0.001302
-0.001352
-0.001343
-0.001357
-0.001307
-0.001386
-0.001352
-0.001348
-0.001304
-0.001350
-0.001569
-0.001502
-0.001521
-0.001532
-0.001496
-0.001599
-0.001589
-0.001593
-0.001559
-0.001685
-0.001756
-0.001742
-0.001767
-0.001703
-0.001716
-0.001714
-0.001740
-0.001670
-0.001724
-0.001670
-0.001652
-0.001669
-0.001643
-0.001638
-0.001633
-0.001659
-0.001660
-0.001622
-0.001626
-0.001777
-0.001782
-0.001745
-0.001738
-0.001709
-0.001724
-0.001729
-0.001709
-0.001656
-0.001654
-0.001708
-0.001701
-0.001667
-0.001653
-0.001655
-0.001638
-0.001606
-0.001647
-0.001637
-0.001622
-0.001609
-0.001613
-0.001628
-0.001586
-0.001629
-0.001582
-0.001551
-0.001557
-0.001508
-0.001568
-0.001525
-0.001534
-0.001565
-0.001513
-0.001517
-0.001519
-0.001543
-0.001534
-0.001512
-0.001530
-0.001491
-0.001494
-0.001493
-0.001539
-0.001503
-0.001486
-0.001426
-0.001530
-0.001628
-0.001549
-0.001539
-0.001570
-0.001588
-0.001510
-0.001526
-0.001519
-0.001511
-0.001491
-0.001553
-0.001484
-0.001472
-0.001498
-0.001469
-0.001518
-0.001484
-0.001450
-0.001390
-0.001449
-0.001443
-0.001450
-0.001402
-0.001373
-0.001376
-0.001380
-0.001388
-0.001385
-0.001432
-0.001391
-0.001385
-0.001359
-0.001383
-0.001389
-0.001361
-0.001371
-0.001348
-0.001385
-0.001393
-0.001367
-0.001379
-0.001345
-0.001320
-0.001328
-0.001307
-0.001312
-0.001297
-0.001284
-0.001280
-0.001211
-0.001263
-0.001280
-0.001274
-0.001277
-0.001278
-0.001248
-0.001228
-0.001230
-0.001266
-0.001261
-0.001206
-0.001202
-0.001192
-0.001225
-0.001217
-0.001244
-0.001185
-0.001185
-0.001191
-0.001165
-0.001197
-0.001168
-0.001124
-0.001152
-0.001183
-0.001173
-0.001104
-0.001135
-0.001119
-0.001154
-0.001116
-0.001109
-0.001101
-0.001109
-0.001046
-0.001001
-0.001070
-0.001063
-0.001082
-0.001081
-0.001037
-0.001035
-0.001054
-0.001087
-0.001061
-0.000997
-0.001081
-0.001066
-0.000999
-0.001006
-0.001001
-0.001050
-0.000977
-0.000953
-0.000962
-0.000961
-0.000966
-0.001004
-0.001007
-0.000923
-0.000923
-0.000965
-0.000930
-0.000911
-0.000937
-0.000913
-0.000974
-0.000909
-0.000907
-0.000935
-0.000906
-0.000903
-0.000909
-0.000882
-0.000840
-0.000912
-0.000852
-0.000883
-0.000937
-0.000914
-0.000902
-0.000929
-0.000879
-0.000882
-0.000890
-0.000833
-0.000854
-0.000794
-0.000813
-0.000877
-0.000807
-0.000839
-0.000780
-0.000754
-0.000807
-0.000788
-0.000799
-0.000795
-0.000791
-0.000770
-0.000784
-0.000723
-0.000720
-0.000737
-0.000742
-0.000776
-0.000745
-0.000744
-0.000782
-0.000685
-0.000708
-0.000730
-0.000652
-0.000705
-0.000737
-0.000729
-0.000719
-0.000703
-0.000705
-0.000742
-0.000707
-0.000713
-0.000709
-0.000725
-0.000689
-0.000607
-0.000647
-0.000654
-0.000689
-0.000652
-0.000634
-0.000633
-0.000661
-0.000679
-0.000660
-0.000621
-0.000649
-0.000605
-0.000638
-0.000627
-0.000618
-0.000617
-0.000601
-0.000613
-0.000542
-0.000612
-0.000600
-0.000573
-0.000570
-0.000581
-0.000534
-0.000566
-0.000453
-0.000544
-0.000583
-0.000507
-0.000586
-0.000531
-0.000565
-0.000556
-0.000526
-0.000542
-0.000570
-0.000519
-0.000502
-0.000528
-0.000477
-0.000508
-0.000495
-0.000482
-0.000532
-0.000528
-0.000487
-0.000542
-0.000548
-0.000527
-0.000493
-0.000487
-0.000470
-0.000459
-0.000472
-0.000492
-0.000454
-0.000483
-0.000470
-0.000469
-0.000466
-0.000418
-0.000416
-0.000419
-0.000390
-0.000448
-0.000469
-0.000440
-0.000493
-0.000484
-0.000461
-0.000451
-0.000416
-0.000423
-0.000512
-0.000559
-0.000562
-0.000531
-0.000597
-0.000553
-0.000621
-0.000543
-0.000497
-0.000537
-0.000584
-0.000694
-0.000636
-0.000637
-0.000668
-0.000666
-0.000604
-0.000490
-0.000387
-0.000405
-0.000571
-0.000590
-0.000419
-0.000398
-0.000369
-0.000279
-0.000233
-0.000049
0.000063
0.000099
-0.000031
-0.000028
0.000061
-0.000041
0.000109
0.000073
-0.000091
0.000035
0.000066
0.000015
-0.000191
-0.000377
-0.000490
-0.000529
-0.000510
-0.000742
-0.000792
-0.000566
-0.000426
-0.000360
-0.000563
-0.000720
-0.000719
-0.000589
-0.000650
-0.000819
-0.000609
-0.000343
-0.000145
-0.000060
-0.000305
-0.000384
-0.000409
-0.000351
-0.000314
-0.000385
-0.000207
0.000034
0.000308
0.000383
0.000280
0.000447
0.000544
0.000727
0.001023
0.000881
0.000788
0.001022
0.001244
0.001307
0.001527
0.001701
0.001628
0.001698
0.001610
0.000273
-0.000545
-0.000650
-0.000869
-0.000922
-0.000910
-0.001131
-0.001550
-0.001605
-0.002272
-0.003812
-0.004406
-0.004542
-0.004691
-0.004583
-0.004520
-0.004788
-0.005249
-0.005331
-0.006166
-0.007369
-0.007701
-0.007870
-0.007981
-0.008121
-0.008358
-0.008818
-0.009496
-0.009709
-0.009972
-0.010346
-0.010658
-0.010765
-0.011030
-0.011248
-0.011617
-0.011642
-0.012347
-0.010245
-0.007053
-0.007356
-0.007152
-0.007291
-0.007383
-0.007828
-0.007938
-0.008034
-0.008296
-0.004107
-0.002054
-0.002831
-0.002620
-0.003175
-0.003306
-0.004055
-0.003761
-0.004533
-0.002991
0.002586
0.002854
0.002455
0.002326
0.002043
0.001951
0.001368
0.001822
0.000650
0.004754
0.008580
0.007254
0.007471
0.007123
0.007359
0.006793
0.006927
0.006614
0.006919
0.012896
0.014196
0.013494
0.013847
0.013122
0.013383
0.012622
0.012975
0.011694
0.014677
0.019702
0.018749
0.018914
0.018485
0.018370
0.018195
0.017928
0.017783
0.017394
0.023157
0.025733
0.024871
0.025523
0.024814
0.024912
0.024364
0.024880
0.023861
0.026063
0.031969
0.031898
0.031879
0.031744
0.031450
0.031770
0.031903
0.032302
0.031337
0.036756
0.040902
0.040231
0.041076
0.040903
0.041513
0.041296
0.041846
0.041376
0.042631
0.049015
0.049850
0.049585
0.049966
0.049700
0.050310
0.050041
0.051093
0.050168
0.054509
0.059774
0.059110
0.059961
0.059894
0.060633
0.060540
0.060423
0.060399
0.060658
0.067630
0.070040
0.069160
0.069980
0.069731
0.070539
0.070051
0.070518
0.069428
0.072485
0.079191
0.079030
0.078837
0.078590
0.078360
0.078829
0.078064
0.076864
0.076201
0.083049
0.087944
0.087198
0.087761
0.087286
0.087514
0.086851
0.086670
0.085267
0.086993
0.093329
0.093468
0.092910
0.092638
0.091893
0.091927
0.091686
0.091848
0.090436
0.095531
0.100121
0.099109
0.099369
0.098541
0.098522
0.097730
0.097827
0.097115
0.097563
0.104037
0.105134
0.104128
0.104349
0.103694
0.103580
0.102836
0.103383
0.102026
0.104883
0.110068
0.109615
0.109627
0.109345
0.109066
0.109037
0.108718
0.108868
0.109177
0.112834
0.114724
0.114217
0.114410
0.114084
0.113772
0.113476
0.112584
0.112606
0.110301
0.105393
0.104390
0.103822
0.103381
0.102841
0.102331
0.101961
0.101281
0.101792
0.095955
0.091401
0.092307
0.091214
0.091454
0.090994
0.091067
0.090362
0.090741
0.089391
0.081368
0.079852
0.080101
0.079406
0.079855
0.079029
0.079585
0.078562
0.079449
0.074721
0.068315
0.069173
0.068205
0.068346
0.067711
0.067634
0.067444
0.066802
0.066910
0.059747
0.056984
0.057707
0.056713
0.057188
0.056411
0.057216
0.056096
0.056668
0.053520
0.046133
0.046578
0.046606
0.046700
0.046495
0.046094
0.046222
0.045405
0.046409
0.039835
0.035389
0.036482
0.035732
0.036284
0.035518
0.036060
0.035192
0.035777
0.034558
0.026809
0.025725
0.026136
0.025844
0.026314
0.025739
0.026107
0.025175
0.026383
0.021551
0.015673
0.016936
0.016406
0.016648
0.016312
0.016413
0.016180
0.016266
0.015965
0.008502
0.006430
0.007432
0.006578
0.006994
0.006525
0.007266
0.006351
0.007333
0.003378
-0.003319
-0.002275
-0.002723
-0.002679
-0.002533
-0.002573
-0.002539
-0.002782
-0.002131
-0.009037
-0.012662
-0.011375
-0.012170
-0.011288
-0.011719
-0.011365
-0.011868
-0.010831
-0.013092
-0.020634
-0.020861
-0.020742
-0.020766
-0.020412
-0.020745
-0.020218
-0.020841
-0.019688
-0.025506
-0.029997
-0.028865
-0.029890
-0.029146
-0.029668
-0.028948
-0.029205
-0.028671
-0.029600
-0.037217
-0.038349
-0.037936
-0.038195
-0.037616
-0.037984
-0.036977
-0.037665
-0.036292
-0.041416
-0.047373
-0.045963
-0.046516
-0.045841
-0.045971
-0.045404
-0.045410
-0.045303
-0.045385
-0.053240
-0.055822
-0.054958
-0.055413
-0.054484
-0.055133
-0.054534
-0.055074
-0.054536
-0.057499
-0.063443
-0.063212
-0.063439
-0.063368
-0.062929
-0.063065
-0.062401
-0.062241
-0.061514
-0.061176
-0.060786
-0.060176
-0.060147
-0.059462
-0.059102
-0.059038
-0.058770
-0.058913
-0.057912
-0.056041
-0.055716
-0.055964
-0.055975
-0.055794
-0.055763
-0.055655
-0.055624
-0.055817
-0.053774
-0.051976
-0.052168
-0.052061
-0.052262
-0.052013
-0.051938
-0.051802
-0.051805
-0.051406
-0.048944
-0.048447
-0.048451
-0.048125
-0.048350
-0.047986
-0.048141
-0.047782
-0.047989
-0.046763
-0.044628
-0.044684
-0.044243
-0.044192
-0.044195
-0.044001
-0.044054
-0.043919
-0.043919
-0.041696
-0.040569
-0.040852
-0.040662
-0.040715
-0.040512
-0.040651
-0.040262
-0.040510
-0.039564
-0.037459
-0.037310
-0.037141
-0.037103
-0.037000
-0.037036
-0.036851
-0.036541
-0.036858
-0.035325
-0.034239
-0.034102
-0.033826
-0.033849
-0.033556
-0.033635
-0.033274
-0.033351
-0.033205
-0.032733
-0.032844
-0.032550
-0.032618
-0.032689
-0.032568
-0.032599
-0.032415
-0.032450
-0.032244
-0.032325
-0.032208
-0.031722
-0.031661
-0.031489
-0.031562
-0.031448
-0.031384
-0.031195
-0.031024
-0.031375
-0.031109
-0.030752
-0.030815
-0.030708
-0.030622
-0.030469
-0.030343
-0.030086
-0.030120
-0.030179
-0.029802
-0.029744
-0.029787
-0.029827
-0.029831
-0.029806
-0.029731
-0.029363
-0.029420
-0.029393
-0.029166
-0.029245
-0.029173
-0.029238
-0.029154
-0.029195
-0.029107
-0.028871
-0.028842
-0.028678
-0.028602
-0.028582
-0.028571
-0.028554
-0.028439
-0.028522
-0.028428
-0.028235
-0.028269
-0.028106
-0.027978
-0.027881
-0.027840
-0.027624
-0.027549
-0.027593
-0.027412
-0.027403
-0.027486
-0.027326
-0.027222
-0.027267
-0.027110
-0.027001
-0.027025
-0.026837
-0.026676
-0.026660
-0.026525
-0.026428
-0.026395
-0.026370
-0.026213
-0.026128
-0.026128
-0.025978
-0.025957
-0.025854
-0.025670
-0.025579
-0.025643
-0.025558
-0.025392
-0.025364
-0.025192
-0.025064
-0.025090
-0.024851
-0.024757
-0.024744
-0.024716
-0.024739
-0.024586
-0.024572
-0.024379
-0.024402
-0.024426
-0.024204
-0.024252
-0.024065
-0.024044
-0.024020
-0.023836
-0.023740
-0.023499
-0.023670
-0.023629
-0.023473
-0.023531
-0.023315
-0.023445
-0.023369
-0.023217
-0.023107
-0.022955
-0.023213
-0.022959
-0.023033
-0.022919
-0.022728
-0.022825
-0.022647
-0.022597
-0.022351
-0.022466
-0.022516
-0.022426
-0.022410
-0.022230
-0.022270
-0.022201
-0.022064
-0.021910
-0.021769
-0.021841
-0.021807
-0.021729
-0.021557
-0.021425
-0.021403
-0.021342
-0.021301
-0.021146
-0.021147
-0.021254
-0.021249
-0.021127
-0.020987
-0.020949
-0.020920
-0.020929
-0.020838
-0.020614
-0.020624
-0.020619
-0.020519
-0.020388
-0.020315
-0.020250
-0.020161
-0.020264
-0.020047
-0.019892
-0.019896
-0.019802
-0.019754
-0.019657
-0.019567
-0.019509
-0.019471
-0.019428
-0.019166
-0.019092
-0.019102
-0.018991
-0.018922
-0.018914
-0.018790
-0.018724
-0.018731
-0.018540
-0.018359
-0.018381
-0.018351
-0.018313
-0.018348
-0.018207
-0.018276
-0.018169
-0.018082
-0.017996
-0.017975
-0.017982
-0.017912
-0.017949
-0.017899
-0.017864
-0.017882
-0.017768
-0.017690
-0.017681
-0.017730
-0.017672
-0.017562
-0.017560
-0.017507
-0.017408
-0.017310
-0.017205
-0.017105
-0.017103
-0.017098
-0.017018
-0.016938
-0.016901
-0.016886
-0.016744
-0.016553
-0.016523
-0.016470
-0.016499
-0.016471
-0.016388
-0.016345
-0.016387
-0.016322
-0.016142
-0.016042
-0.015955
-0.015998
-0.015960
-0.015903
-0.015823
-0.015801
-0.015853
-0.015746
-0.015622
-0.015564
-0.015517
-0.015431
-0.015485
-0.015348
-0.015153
-0.015326
-0.015256
-0.015038
-0.015024
-0.014946
-0.014903
-0.014834
-0.014764
-0.014670
-0.014518
-0.014577
-0.014452
-0.014384
-0.014304
-0.014308
-0.014272
-0.014148
-0.014221
-0.014042
-0.013949
-0.013933
-0.013838
-0.013770
-0.013703
-0.013716
-0.013658
-0.013594
-0.013566
-0.013380
-0.013430
-0.013331
-0.013191
-0.013146
-0.013159
-0.013211
-0.013129
-0.013085
-0.012911
-0.012848
-0.012896
-0.012739
-0.012708
-0.012718
-0.012776
-0.012753
-0.012677
-0.012647
-0.012473
-0.012455
-0.012477
-0.012416
-0.012310
-0.012371
-0.012336
-0.012270
-0.012300
-0.012170
-0.012133
-0.012118
-0.012006
-0.011927
-0.011925
-0.011949
-0.011927
-0.011826
-0.011838
-0.011772
-0.011813
-0.011769
-0.011685
-0.011625
-0.011547
-0.011405
-0.011211
-0.011307
-0.011182
-0.011215
-0.011197
-0.011122
-0.011010
-0.010864
-0.010786
-0.010166
-0.009927
-0.009947
-0.009827
-0.009888
-0.009758
-0.009729
-0.009573
-0.009533
-0.009070
-0.008323
-0.008325
-0.008193
-0.008228
-0.008270
-0.008249
-0.008117
-0.007989
-0.007979
-0.007156
-0.006664
-0.006765
-0.006623
-0.006782
-0.006756
-0.006694
-0.006616
-0.006651
-0.006323
-0.005394
-0.005327
-0.005329
-0.005303
-0.005428
-0.005327
-0.005363
-0.005292
-0.005418
-0.004677
-0.004015
-0.004148
-0.004056
-0.004218
-0.004129
-0.004158
-0.004035
-0.004084
-0.003965
-0.003047
-0.002920
-0.002948
-0.002929
-0.003006
-0.002818
-0.002928
-0.002832
-0.003019
-0.002519
-0.001760
-0.001979
-0.001815
-0.001953
-0.001862
-0.001795
-0.001766
-0.001696
-0.001794
-0.000960
-0.000691
-0.000800
-0.000758
-0.000847
-0.000599
-0.000731
-0.000557
-0.000643
-0.000422
0.000338
0.000272
0.000305
0.000238
0.000251
0.000276
0.000327
0.000469
0.000247
0.000912
0.001327
0.001223
0.001221
0.001109
0.001207
0.001101
0.001325
0.001179
0.001266
0.001852
0.001903
0.001945
0.001835
0.001793
0.001775
0.001736
0.001994
0.001845
0.002219
0.002582
0.002619
0.002747
0.002510
0.002524
0.002417
0.002570
0.002647
0.002635
0.003238
0.003269
0.003296
0.003383
0.003217
0.003186
0.003074
0.003290
0.003284
0.003558
0.004021
0.003902
0.004113
0.003968
0.003951
0.003865
0.003831
0.004099
0.004053
0.004727
0.004872
0.004762
0.004836
0.004742
0.004823
0.004617
0.004728
0.004670
0.004876
0.005446
0.005427
0.005374
0.005392
0.005370
0.005286
0.005141
0.005144
0.005071
0.005555
0.006093
0.005923
0.006003
0.005986
0.005979
0.005863
0.005736
0.005575
0.005580
0.006417
0.006659
0.006711
0.006732
0.006606
0.006655
0.006421
0.006287
0.005922
0.006431
0.007121
0.007350
0.007345
0.007243
0.007169
0.007187
0.006849
0.006153
0.006060
0.007056
0.008185
0.008226
0.008228
0.008039
0.008002
0.007852
0.007649
0.007474
0.007729
0.008359
0.008605
0.008688
0.008530
0.008409
0.008307
0.008185
0.008044
0.007984
0.008442
0.008846
0.008927
0.008947
0.008800
0.008671
0.008641
0.008547
0.008465
0.008511
0.009019
0.009228
0.009217
0.009155
0.009102
0.009112
0.009100
0.009115
0.009089
0.009249
0.009717
0.009903
0.009946
0.009989
0.009951
0.010035
0.009931
0.009901
0.009937
0.010117
0.010525
0.010631
0.010579
0.010650
0.010655
0.010632
0.010504
0.010497
0.010589
0.010925
0.011144
0.011197
0.011246
0.011258
0.011259
0.011119
0.011022
0.010968
0.011077
0.011469
0.011606
0.011666
0.011644
0.011580
0.011549
0.011321
0.011259
0.011273
0.011583
0.011774
0.011771
0.011726
0.011658
0.011613
0.011483
0.011307
0.011196
0.011286
0.011395
0.011450
0.011439
0.011381
0.011299
0.011182
0.011067
0.011010
0.010927
0.010922
0.010986
0.010989
0.010984
0.010869
0.010810
0.010649
0.010541
0.010542
0.010456
0.010513
0.010532
0.010530
0.010458
0.010368
0.010365
0.010185
0.010215
0.010150
0.010069
0.010092
0.010053
0.010062
0.010045
0.010021
0.010049
0.010113
0.010110
0.010238
0.010354
0.010471
0.010502
0.010588
0.010619
0.010578
0.010606
0.010658
0.010689
0.010750
0.010812
0.010787
0.010778
0.010851
0.010834
0.010814
0.010781
0.010805
0.010820
0.010935
0.011030
0.011010
0.010990
0.010935
0.010944
0.010857
0.010827
0.010807
0.010813
0.010815
0.010745
0.010719
0.010615
0.010575
0.010540
0.010408
0.010406
0.010336
0.010341
0.010361
0.010301
0.010216
0.010099
0.010049
0.009939
0.009848
0.009756
0.009687
0.009588
0.009493
0.009425
0.009361
0.009239
0.009139
0.009057
0.008982
0.008897
0.008759
0.008753
0.008726
0.008649
0.008534
0.008430
0.008394
0.008275
0.008219
0.008132
0.008019
0.007984
0.007933
0.007857
0.007755
0.007663
0.007615
0.007531
0.007472
0.007390
0.007327
0.007283
0.007219
0.007209
0.007223
0.007239
0.007242
0.007279
0.007290
0.007310
0.007447
0.007491
0.007513
0.007501
0.007521
0.007551
0.007533
0.007577
0.007610
0.007651
0.007626
0.007552
0.007609
0.007612
0.007604
0.007625
0.007647
0.007561
0.007549
0.007554
0.007563
0.007545
0.007473
0.007522
0.007529
0.007514
0.007402
0.007429
0.007403
0.007348
0.007341
0.007268
0.007212
0.007114
0.007181
0.007073
0.007074
0.007039
0.006981
0.006948
0.006883
0.006799
0.006775
0.006754
0.006664
0.006547
0.006513
0.006422
0.006268
0.006211
0.006099
0.006068
0.006003
0.005943
0.005883
0.005799
0.005722
0.005667
0.005623
0.005510
0.005454
0.005381
0.005293
0.005228
0.005161
0.005103
0.005037
0.004939
0.004863
0.004754
0.004709
0.004644
0.004553
0.004499
0.004386
0.004345
0.004236
0.004043
0.003995
0.003991
0.003991
0.003979
0.003958
0.003991
0.003955
0.003948
0.003937
0.003857
0.003903
0.003821
0.003888
0.003838
0.003818
0.003810
0.003778
0.003800
0.003643
0.003634
0.003574
0.003599
0.003577
0.003522
0.003551
0.003531
0.003531
0.003474
0.003418
0.003432
0.003431
0.003444
0.003344
0.003327
0.003306
0.003264
0.003257
0.003146
0.003084
0.003119
0.003062
0.003080
0.003006
0.002932
0.002916
0.002897
0.002865
0.002844
0.002802
0.002767
0.002766
0.002738
0.002677
0.002652
0.002643
0.002602
0.002498
0.002396
0.002353
0.002371
0.002310
0.002298
0.002270
0.002200
0.002275
0.002265
0.002209
0.002173
0.002181
0.002085
0.002050
0.002076
0.002008
0.001979
0.002018
0.001857
0.001766
0.001769
0.001664
0.001656
0.001586
0.001615
0.001570
0.001508
0.001496
0.001385
0.001327
0.001311
0.001303
0.001286
0.001303
0.001320
0.001272
0.001307
0.001236
0.001095
0.001176
0.001152
0.001152
0.001140
0.001127
0.001107
0.001127
0.001117
0.000897
0.000851
0.000806
0.000786
0.000851
0.000820
0.000840
0.000825
0.000836
0.000755
0.000602
0.000578
0.000595
0.000537
0.000543
0.000540
0.000562
0.000559
0.000574
0.000392
0.000282
0.000246
0.000136
0.000159
0.000199
0.000197
0.000143
0.000226
0.000138
-0.000045
-0.000089
-0.000031
-0.000072
-0.000098
-0.000100
-0.000098
-0.000091
-0.000095
-0.000180
-0.000320
-0.000321
-0.000324
-0.000307
-0.000305
-0.000307
-0.000378
-0.000373
-0.000330
-0.000512
-0.000513
-0.000600
-0.000568
-0.000553
-0.000587
-0.000558
-0.000623
-0.000529
-0.000598
-0.000850
-0.000877
-0.000861
-0.000821
-0.000844
-0.000843
-0.000855
-0.000875
-0.000802
-0.000971
-0.001117
-0.001084
-0.001119
-0.001108
-0.001130
-0.001113
-0.001115
-0.001061
-0.001147
-0.001548
-0.001570
-0.001523
-0.001552
-0.001580
-0.001545
-0.001564
-0.001590
-0.001504
-0.001661
-0.001815
-0.001790
-0.001805
-0.001829
-0.001809
-0.001782
-0.001814
-0.001835
-0.001770
-0.001973
-0.002020
-0.002032
-0.002074
-0.002055
-0.002020
-0.001971
-0.001985
-0.001951
-0.002088
-0.002259
-0.002244
-0.002213
-0.002230
-0.002199
-0.002215
-0.002237
-0.002235
-0.002184
-0.002268
-0.002296
-0.002278
-0.002326
-0.002297
-0.002313
-0.002283
-0.002291
-0.002281
-0.002308
-0.002518
-0.002518
-0.002484
-0.002475
-0.002484
-0.002445
-0.002471
-0.002459
-0.002402
-0.002573
-0.002669
-0.002637
-0.002637
-0.002654
-0.002681
-0.002647
-0.002601
-0.002617
-0.002640
-0.002823
-0.002864
-0.002860
-0.002842
-0.002780
-0.002838
-0.002782
-0.002807
-0.002767
-0.002863
-0.003033
-0.002945
-0.002978
-0.002956
-0.002986
-0.002990
-0.002996
-0.002999
-0.002983
-0.003054
-0.003105
-0.003091
-0.003078
-0.003034
-0.003050
-0.003023
-0.003044
-0.002983
-0.003098
-0.003247
-0.003236
-0.003260
-0.003266
-0.003287
-0.003220
-0.003207
-0.003171
-0.003167
-0.003361
-0.003437
-0.003387
-0.003461
-0.003434
-0.003434
-0.003368
-0.003360
-0.003385
-0.003386
-0.003594
-0.003600
-0.003583
-0.003585
-0.003547
-0.003536
-0.003553
-0.003555
-0.003519
-0.003631
-0.003815
-0.003770
-0.003714
-0.003674
-0.003714
-0.003687
-0.003674
-0.003643
-0.003679
-0.003954
-0.003976
-0.003931
-0.003891
-0.003867
-0.003858
-0.003837
-0.003839
-0.003819
-0.003866
-0.003990
-0.003991
-0.004003
-0.004007
-0.003976
-0.003968
-0.003987
-0.003988
-0.003908
-0.004074
-0.004223
-0.004107
-0.004143
-0.004176
-0.004155
-0.004117
-0.004122
-0.004220
-0.004222
-0.004438
-0.004491
-0.004473
-0.004476
-0.004482
-0.004592
-0.004564
-0.004634
-0.004594
-0.004702
-0.004924
-0.004895
-0.004999
-0.004970
-0.005038
-0.005067
-0.005088
-0.005103
-0.005164
-0.005333
-0.005381
-0.005448
-0.005497
-0.005498
-0.005491
-0.005497
-0.005512
-0.005515
-0.005509
-0.005553
-0.005568
-0.005609
-0.005613
-0.005633
-0.005604
-0.005673
-0.005702
-0.005660
-0.005763
-0.005747
-0.005739
-0.005759
-0.005783
-0.005785
-0.005797
-0.005826
-0.005834
-0.005789
-0.005823
-0.005809
-0.005798
-0.005877
-0.005839
-0.005897
-0.005880
-0.005845
-0.005901
-0.005882
-0.005845
-0.005849
-0.005847
-0.005898
-0.005852
-0.005889
-0.005907
-0.005867
-0.005870
-0.005884
-0.005898
-0.005882
-0.005880
-0.005888
-0.005873
-0.005822
-0.005802
-0.005821
-0.005840
-0.005826
-0.005810
-0.005791
-0.005831
-0.005779
-0.005799
-0.005755
-0.005739
-0.005726
-0.005688
-0.005731
-0.005678
-0.005704
-0.005752
-0.005682
-0.005707
-0.005743
-0.005698
-0.005664
-0.005619
-0.005623
-0.005683
-0.005663
-0.005602
-0.005620
-0.005585
-0.005539
-0.005530
-0.005515
-0.005491
-0.005498
-0.005484
-0.005414
-0.005395
-0.005404
-0.005382
-0.005356
-0.005326
-0.005314
-0.005286
-0.005303
-0.005293
-0.005219
-0.005167
-0.005148
-0.005131
-0.005115
-0.005117
-0.005093
-0.005086
-0.004983
-0.004941
-0.004917
-0.004898
-0.004883
-0.004796
-0.004821
-0.004746
-0.004745
-0.004726
-0.004653
-0.004618
-0.004617
-0.004539
-0.004497
-0.004458
-0.004486
-0.004454
-0.004387
-0.004323
-0.004262
-0.004280
-0.004242
-0.004191
-0.004113
-0.004151
-0.004052
-0.003989
-0.003949
-0.003891
-0.003864
-0.003804
-0.003741
-0.003726
-0.003722
-0.003663
-0.003637
-0.003539
-0.003552
-0.003508
-0.003444
-0.003441
-0.003437
-0.003397
-0.003376
-0.003372
-0.003398
-0.003339
-0.003323
-0.003355
-0.003319
-0.003344
-0.003344
-0.003301
-0.003269
-0.003294
-0.003273
-0.003291
-0.003226
-0.003196
-0.003206
-0.003185
-0.003210
-0.003210
-0.003178
-0.003210
-0.003178
-0.003094
-0.003129
-0.003116
-0.003071
-0.003080
-0.003072
-0.003060
-0.003045
-0.003071
-0.003039
-0.003020
-0.003021
-0.002983
-0.002971
-0.002994
-0.002910
-0.002946
-0.002959
-0.002908
-0.002971
-0.002883
-0.002827
-0.002854
-0.002839
-0.002816
-0.002824
-0.002804
-0.002745
-0.002722
-0.002706
-0.002706
-0.002709
-0.002663
-0.002632
-0.002614
-0.002640
-0.002665
-0.002610
-0.002654
-0.002490
-0.002628
-0.002611
-0.002632
-0.002494
-0.002647
-0.003065
-0.003052
-0.003009
-0.002457
-0.002401
-0.002355
-0.002343
-0.002313
-0.002346
-0.002124
-0.002039
-0.002053
-0.002017
-0.002045
-0.002019
-0.002029
-0.001965
-0.001994
-0.001862
-0.001701
-0.001673
-0.001646
-0.001608
-0.001618
-0.001677
-0.001683
-0.001688
-0.001639
-0.001490
-0.001405
-0.001415
-0.001402
-0.001377
-0.001385
-0.001389
-0.001406
-0.001443
-0.001336
-0.001169
-0.001173
-0.001165
-0.001106
-0.001132
-0.001087
-0.001153
-0.001101
-0.001131
-0.000961
-0.000854
-0.000826
-0.000850
-0.000847
-0.000794
-0.000833
-0.000823
-0.000829
-0.000771
-0.000573
-0.000560
-0.000564
-0.000497
-0.000576
-0.000611
-0.000508
-0.000514
-0.000547
-0.000490
-0.000401
-0.000360
-0.000386
-0.000385
-0.000396
-0.000412
-0.000402
-0.000370
-0.000410
-0.000185
-0.000107
-0.000118
-0.000142
-0.000162
-0.000148
-0.000148
-0.000107
-0.000127
-0.000054
0.000164
0.000190
0.000153
0.000089
0.000124
0.000153
0.000116
0.000126
0.000146
0.000200
0.000310
0.000290
0.000314
0.000276
0.000210
0.000241
0.000275
0.000264
0.000268
0.000478
0.000450
0.000486
0.000475
0.000465
0.000464
0.000450
0.000514
0.000501
0.000670
0.000928
0.000877
0.000862
0.000838
0.000900
0.000860
0.000889
0.000823
0.000826
0.000969
0.000977
0.000993
0.000921
0.000978
0.000964
0.000940
0.000951
0.000932
0.000998
0.001079
0.001074
0.001094
0.001073
0.001113
0.001090
0.001068
0.001086
0.001047
0.001068
0.001155
0.001187
0.001150
0.001181
0.001212
0.001186
0.001127
0.001150
0.001224
0.001297
0.001240
0.001260
0.001271
0.001272
0.001248
0.001277
0.001278
0.001300
0.001284
0.001267
0.001282
0.001259
0.001282
0.001250
0.001239
0.001237
0.001286
0.001238
0.001352
0.001365
0.001385
0.001410
0.001364
0.001405
0.001354
0.001376
0.001363
0.001372
0.001353
0.001302
0.001322
0.001346
0.001322
0.001324
0.001372
0.001374
0.001291
0.001458
0.001530
0.001454
0.001391
0.001372
0.001411
0.001459
0.001438
0.001424
0.001432
0.001391
0.001388
0.001375
0.001362
0.001429
0.001382
0.001375
0.001426
0.001399
0.001431
0.001432
0.001421
0.001400
0.001336
0.001365
0.001379
0.001415
0.001402
0.001386
0.001397
0.001327
0.001402
0.001325
0.001341
0.001392
0.001331
0.001351
0.001307
0.001261
0.001186
0.001163
0.001169
0.001159
0.001186
0.001168
0.001155
0.001142
0.001143
0.001186
0.001166
0.001174
0.001165
0.001202
0.001180
0.001196
0.001198
0.001181
0.001154
0.001075
0.001004
0.001083
0.001029
0.000981
0.001026
0.001036
0.001053
0.001055
0.001050
0.001024
0.001059
0.000998
0.001011
0.001033
0.001040
0.001063
0.001019
0.000969
0.000911
0.000905
0.000940
0.000892
0.000893
0.000896
0.000889
0.000928
0.000873
0.000893
0.000777
0.000750
0.000789
0.000778
0.000765
0.000761
0.000780
0.000752
0.000817
0.000721
0.000672
0.000639
0.000684
0.000722
0.000639
0.000721
0.000665
0.000617
0.000638
0.000568
0.000562
0.000546
0.000485
0.000512
0.000525
0.000471
0.000457
0.000470
0.000266
0.000067
0.000120
0.000111
0.000134
0.000104
0.000167
0.000161
0.000155
0.000166
-0.000062
-0.000076
-0.000142
-0.000138
-0.000112
-0.000129
-0.000143
-0.000092
-0.000055
-0.000112
-0.000232
-0.000277
-0.000183
-0.000246
-0.000223
-0.000190
-0.000188
-0.000181
-0.000211
-0.000399
-0.000467
-0.000435
-0.000483
-0.000454
-0.000443
-0.000408
-0.000464
-0.000455
-0.000508
-0.000681
-0.000667
-0.000649
-0.000665
-0.000621
-0.000703
-0.000701
-0.000655
-0.000638
-0.000700
-0.000785
-0.000751
-0.000790
-0.000777
-0.000748
-0.000743
-0.000770
-0.000731
-0.000772
-0.000934
-0.000985
-0.000952
-0.000985
-0.000964
-0.000901
-0.000936
-0.000951
-0.000893
-0.001051
-0.001218
-0.001162
-0.001166
-0.001172
-0.001162
-0.001162
-0.001074
-0.001139
-0.001147
-0.001338
-0.001416
-0.001337
-0.001363
-0.001344
-0.001378
-0.001296
-0.001335
-0.001290
-0.001367
-0.001582
-0.001567
-0.001552
-0.001576
-0.001513
-0.001564
-0.001542
-0.001525
-0.001493
-0.001683
-0.001793
-0.001753
-0.001830
-0.001763
-0.001744
-0.001766
-0.001723
-0.001720
-0.001694
-0.001712
-0.001778
-0.001693
-0.001686
-0.001635
-0.001643
-0.001656
-0.001649
-0.001612
-0.001684
-0.001806
-0.001770
-0.001759
-0.001735
-0.001787
-0.001723
-0.001683
-0.001785
-0.001749
-0.001745
-0.001804
-0.001732
-0.001746
-0.001697
-0.001720
-0.001720
-0.001638
-0.001697
-0.001651
-0.001704
-0.001625
-0.001655
-0.001726
-0.001682
-0.001657
-0.001645
-0.001662
-0.001616
-0.001595
-0.001646
-0.001625
-0.001629
-0.001638
-0.001626
-0.001625
-0.001594
-0.001609
-0.001539
-0.001573
-0.001553
-0.001553
-0.001564
-0.001543
-0.001550
-0.001544
-0.001530
-0.001518
-0.001593
-0.001607
-0.001619
-0.001603
-0.001655
-0.001627
-0.001600
-0.001630
-0.001560
-0.001549
-0.001574
-0.001556
-0.001572
-0.001556
-0.001557
-0.001585
-0.001532
-0.001534
-0.001521
-0.001505
-0.001531
-0.001499
-0.001496
-0.001509
-0.001461
-0.001454
-0.001510
-0.001497
-0.001451
-0.001481
-0.001456
-0.001403
-0.001454
-0.001417
-0.001455
-0.001434
-0.001421
-0.001447
-0.001433
-0.001406
-0.001414
-0.001403
-0.001406
-0.001419
-0.001392
-0.001330
-0.001335
-0.001324
-0.001289
-0.001365
-0.001334
-0.001330
-0.001325
-0.001316
-0.001333
-0.001310
-0.001249
-0.001273
-0.001305
-0.001289
-0.001282
-0.001302
-0.001251
-0.001213
-0.001251
-0.001177
-0.001250
-0.001223
-0.001218
-0.001281
-0.001246
-0.001213
-0.001197
-0.001197
-0.001210
-0.001177
-0.001218
-0.001262
-0.001205
-0.001181
-0.001191
-0.001158
-0.001162
-0.001180
-0.001151
-0.001155
-0.001111
-0.001137
-0.001156
-0.001107
-0.001145
-0.001100
-0.001101
-0.001132
-0.001109
-0.001131
-0.001123
-0.001107
-0.001066
-0.001031
-0.001068
-0.001067
-0.001043
-0.001052
-0.001052
-0.001064
-0.001028
-0.001036
-0.001036
-0.001032
-0.001043
-0.001039
-0.001004
-0.000992
-0.001004
-0.001008
-0.001020
-0.000963
-0.000973
-0.000950
-0.000919
-0.000924
-0.001003
-0.001003
-0.001013
-0.000972
-0.000929
-0.000901
-0.000905
-0.000894
-0.000941
-0.000895
-0.000888
-0.000924
-0.000879
-0.000899
-0.000901
-0.000862
-0.000913
-0.000875
-0.000850
-0.000916
-0.000884
-0.000895
-0.000863
-0.000823
-0.000879
-0.000859
-0.000799
-0.000834
-0.000804
-0.000807
-0.000830
-0.000811
-0.000768
-0.000803
-0.000786
-0.000830
-0.000855
-0.000840
-0.000805
-0.000771
-0.000759
-0.000819
-0.000737
-0.000679
-0.000772
-0.000784
-0.000823
-0.000779
-0.000787
-0.000749
-0.000756
-0.000749
-0.000756
-0.000722
-0.000706
-0.000757
-0.000758
-0.000771
-0.000737
-0.000788
-0.000738
-0.000692
-0.000704
-0.000693
-0.000739
-0.000685
-0.000664
-0.000667
-0.000667
-0.000691
-0.000647
-0.000687
-0.000660
-0.000640
-0.000641
-0.000630
-0.000723
-0.000681
-0.000680
-0.000604
-0.000606
-0.000635
-0.000606
-0.000597
-0.000623
-0.000615
-0.000615
-0.000596
-0.000598
-0.000620
-0.000605
-0.000578
-0.000597
-0.000597
-0.000551
-0.000545
-0.000623
-0.000581
-0.000550
-0.000563
-0.000544
-0.000523
-0.000605
-0.000556
-0.000515
-0.000481
-0.000485
-0.000550
-0.000486
-0.000530
-0.000481
-0.000513
-0.000473
-0.000513
-0.000492
-0.000507
-0.000525
-0.000430
-0.000466
-0.000498
-0.000499
-0.000497
-0.000568
-0.000504
-0.000449
-0.000404
-0.000398
-0.000333
-0.000421
-0.000538
-0.000504
-0.000545
-0.000475
-0.000421
-0.000388
-0.000324
-0.000286
-0.000297
-0.000352
-0.000505
-0.000512
-0.000450
-0.000376
-0.000321
-0.000342
-0.000342
-0.000245
-0.000291
-0.000375
-0.000453
-0.000456
-0.000337
-0.000313
-0.000324
-0.000389
-0.000429
-0.000371
-0.000311
-0.000315
-0.000235
-0.000179
-0.000175
-0.000324
-0.000402
-0.000469
-0.000436
-0.000315
-0.000242
-0.000146
-0.000201
-0.000213
-0.000230
-0.000336
-0.000426
-0.000492
-0.000429
-0.000264
-0.000110
-0.000042
-0.000154
-0.000228
-0.000307
-0.000354
-0.000448
-0.000460
-0.000344
-0.000217
-0.000125
-0.000144
-0.000267
-0.000314
-0.000350
-0.000370
-0.000466
-0.000502
-0.000573
-0.000637
-0.000595
-0.000716
-0.000758
-0.000756
-0.000713
-0.000582
-0.000557
-0.000718
-0.000795
-0.000602
-0.000666
-0.000594
-0.000503
-0.000389
-0.000208
-0.000033
-0.000088
-0.000961
-0.001056
-0.000971
-0.001000
-0.000824
-0.000608
-0.000395
-0.000379
-0.000257
-0.000824
-0.001762
-0.001776
-0.001777
-0.001850
-0.001684
-0.001672
-0.001746
-0.001778
-0.001892
-0.002662
-0.003574
-0.003771
-0.003863
-0.003933
-0.003994
-0.004460
-0.004934
-0.005261
-0.005306
-0.005420
-0.006427
-0.006662
-0.006695
-0.006662
-0.007396
-0.009258
-0.009493
-0.009347
-0.004602
-0.001237
-0.001794
-0.001659
-0.002265
-0.002069
-0.002822
-0.003226
-0.003955
-0.003542
0.001647
0.002900
0.002175
0.002083
0.001209
0.001092
0.000036
0.000135
-0.001268
0.001464
0.006593
0.005674
0.005599
0.005007
0.004420
0.003884
0.003413
0.003221
0.002068
0.007164
0.009748
0.008184
0.008518
0.007506
0.007319
0.006488
0.006684
0.005656
0.006954
0.012872
0.012761
0.012167
0.011997
0.011177
0.011069
0.010512
0.010862
0.009869
0.014244
0.018114
0.016488
0.016727
0.016097
0.016418
0.016513
0.016895
0.016727
0.017476
0.024093
0.025887
0.025985
0.026793
0.026343
0.026932
0.026459
0.027374
0.026668
0.030350
0.035868
0.035366
0.036086
0.035938
0.036292
0.036672
0.036859
0.037512
0.037423
0.043783
0.046879
0.046327
0.047369
0.046805
0.047715
0.047387
0.048386
0.048040
0.050249
0.056795
0.056911
0.057270
0.057506
0.057342
0.057869
0.057558
0.058247
0.057375
0.062433
0.066636
0.065632
0.066508
0.065950
0.066451
0.066229
0.066635
0.066188
0.067125
0.073850
0.074744
0.074149
0.074366
0.073535
0.073622
0.072984
0.073322
0.072048
0.076018
0.080889
0.079636
0.079870
0.079294
0.079188
0.078908
0.078925
0.078589
0.078394
0.084874
0.086874
0.085966
0.086376
0.085444
0.085546
0.084835
0.085482
0.084110
0.086744
0.092363
0.091364
0.091180
0.090813
0.090622
0.090527
0.090398
0.090665
0.089792
0.095711
0.099009
0.097617
0.098070
0.097455
0.097833
0.097074
0.097309
0.096393
0.097788
0.104243
0.104362
0.103691
0.103917
0.103458
0.103440
0.102657
0.103034
0.102101
0.106008
0.110488
0.109657
0.109834
0.109224
0.109182
0.109059
0.108840
0.108744
0.109385
0.113747
0.115514
0.115086
0.114803
0.114362
0.114112
0.114014
0.113170
0.113032
0.109953
0.104836
0.104256
0.103711
0.103647
0.103039
0.102921
0.102772
0.102081
0.102450
0.095675
0.091678
0.092172
0.090986
0.091329
0.090672
0.091248
0.089909
0.090758
0.088720
0.080609
0.080015
0.079856
0.079869
0.079884
0.079317
0.079444
0.078276
0.079567
0.073552
0.067906
0.069069
0.068335
0.068511
0.067798
0.068063
0.067478
0.067836
0.066998
0.059114
0.057207
0.057837
0.056916
0.057130
0.056642
0.056891
0.055912
0.057026
0.052533
0.046143
0.047183
0.046438
0.046394
0.046264
0.046151
0.045904
0.045771
0.045939
0.038677
0.035473
0.036206
0.035259
0.035875
0.035103
0.035491
0.034936
0.035971
0.033128
0.025920
0.026098
0.025961
0.025723
0.025928
0.025528
0.025730
0.025251
0.026137
0.020251
0.016003
0.017268
0.016324
0.016829
0.016342
0.016539
0.015921
0.016329
0.014945
0.007376
0.006525
0.006904
0.006173
0.006739
0.006254
0.006706
0.005927
0.006992
0.002071
-0.003808
-0.002527
-0.003119
-0.002626
-0.002840
-0.002740
-0.002843
-0.003064
-0.002986
-0.010547
-0.013065
-0.011921
-0.012622
-0.011964
-0.012654
-0.011705
-0.012399
-0.011298
-0.014363
-0.021610
-0.021052
-0.021154
-0.021052
-0.020915
-0.021046
-0.020663
-0.021288
-0.020305
-0.026753
-0.030712
-0.029418
-0.030090
-0.029074
-0.029803
-0.029334
-0.029714
-0.028667
-0.030467
-0.038013
-0.038286
-0.038083
-0.038111
-0.037699
-0.038198
-0.037388
-0.037877
-0.036662
-0.042559
-0.047379
-0.045645
-0.046556
-0.045860
-0.046116
-0.045524
-0.045698
-0.045220
-0.046265
-0.054417
-0.055762
-0.055004
-0.055451
-0.054689
-0.055150
-0.054569
-0.055074
-0.054180
-0.058335
-0.063780
-0.063222
-0.063616
-0.063048
-0.062799
-0.062924
-0.062688
-0.062452
-0.061681
-0.061162
-0.060344
-0.060006
-0.060237
-0.059920
-0.059733
-0.059740
-0.059228
-0.059502
-0.058533
-0.056330
-0.056160
-0.055997
-0.055931
-0.055791
-0.055835
-0.055715
-0.055087
-0.055546
-0.053433
-0.051850
-0.052105
-0.051757
-0.052136
-0.051728
-0.051753
-0.051367
-0.051343
-0.051025
-0.048450
-0.048198
-0.048219
-0.048129
-0.048251
-0.047711
-0.047876
-0.047619
-0.047959
-0.046252
-0.044448
-0.044839
-0.044282
-0.044502
-0.044461
-0.044391
-0.044271
-0.044094
-0.043822
-0.041339
-0.040699
-0.040739
-0.040467
-0.040825
-0.040388
-0.040337
-0.039844
-0.040079
-0.038970
-0.036970
-0.036968
-0.036477
-0.036584
-0.036365
-0.036224
-0.036236
-0.035932
-0.036009
-0.034478
-0.033855
-0.033799
-0.033481
-0.033635
-0.033350
-0.033561
-0.033361
-0.033313
-0.033261
-0.032872
-0.033100
-0.032891
-0.032892
-0.032710
-0.032389
-0.032414
-0.032231
-0.032311
-0.032022
-0.031971
-0.032086
-0.032000
-0.032073
-0.031815
-0.031709
-0.031606
-0.031643
-0.031676
-0.031304
-0.031326
-0.031270
-0.031225
-0.031066
-0.030937
-0.031002
-0.030771
-0.030752
-0.030680
-0.030606
-0.030533
-0.030506
-0.030517
-0.030491
-0.030486
-0.030436
-0.030317
-0.030213
-0.030052
-0.029908
-0.029707
-0.029636
-0.029419
-0.029210
-0.029124
-0.029015
-0.028969
-0.028870
-0.028867
-0.028760
-0.028515
-0.028529
-0.028427
-0.028434
-0.028272
-0.028212
-0.028159
-0.027932
-0.028133
-0.027968
-0.027924
-0.027912
-0.027795
-0.027629
-0.027364
-0.027511
-0.027388
-0.027240
-0.027323
-0.027120
-0.027026
-0.026903
-0.026840
-0.026729
-0.026563
-0.026671
-0.026441
-0.026395
-0.026412
-0.026291
-0.026342
-0.026326
-0.026295
-0.026151
-0.026186
-0.026242
-0.026083
-0.026034
-0.025860
-0.025785
-0.025860
-0.025703
-0.025529
-0.025292
-0.025179
-0.025125
-0.025055
-0.025050
-0.024869
-0.024936
-0.025106
-0.024883
-0.024754
-0.024491
-0.024413
-0.024534
-0.024447
-0.024338
-0.024145
-0.024210
-0.024231
-0.024049
-0.024020
-0.023799
-0.023766
-0.023785
-0.023629
-0.023640
-0.023497
-0.023650
-0.023610
-0.023514
-0.023510
-0.023234
-0.023257
-0.023219
-0.023065
-0.022854
-0.022757
-0.022693
-0.022637
-0.022568
-0.022502
-0.022322
-0.022196
-0.022204
-0.022097
-0.022109
-0.022072
-0.022058
-0.021982
-0.021891
-0.021793
-0.021610
-0.021641
-0.021614
-0.021390
-0.021478
-0.021381
-0.021384
-0.021319
-0.021214
-0.021087
-0.020860
-0.020906
-0.020722
-0.020656
-0.020705
-0.020619
-0.020720
-0.020625
-0.020516
-0.020414
-0.020268
-0.020303
-0.020214
-0.020281
-0.020222
-0.020171
-0.020273
-0.020151
-0.020193
-0.020026
-0.019963
-0.019964
-0.019761
-0.019758
-0.019505
-0.019464
-0.019402
-0.019290
-0.019301
-0.019140
-0.019183
-0.019125
-0.019067
-0.018957
-0.018831
-0.018926
-0.018769
-0.018749
-0.018703
-0.018590
-0.018698
-0.018572
-0.018480
-0.018340
-0.018356
-0.018323
-0.018195
-0.018209
-0.018060
-0.018135
-0.018095
-0.018097
-0.018088
-0.017961
-0.018036
-0.017940
-0.017826
-0.017746
-0.017619
-0.017583
-0.017453
-0.017413
-0.017334
-0.017267
-0.017177
-0.017048
-0.016991
-0.016894
-0.016890
-0.016695
-0.016658
-0.016712
-0.016564
-0.016562
-0.016431
-0.016354
-0.016330
-0.016261
-0.016257
-0.016084
-0.016183
-0.016150
-0.016099
-0.016074
-0.015855
-0.015767
-0.015707
-0.015738
-0.015570
-0.015467
-0.015679
-0.015579
-0.015562
-0.015492
-0.015330
-0.015326
-0.015271
-0.015198
-0.015066
-0.015196
-0.015137
-0.015013
-0.015141
-0.014969
-0.014899
-0.014875
-0.014783
-0.014727
-0.014596
-0.014639
-0.014536
-0.014549
-0.014464
-0.014297
-0.014355
-0.014311
-0.014271
-0.014171
-0.014137
-0.014055
-0.013993
-0.014032
-0.013906
-0.013801
-0.013860
-0.013815
-0.013755
-0.013737
-0.013721
-0.013594
-0.013623
-0.013649
-0.013448
-0.013378
-0.013350
-0.013289
-0.013202
-0.013259
-0.013177
-0.013093
-0.013219
-0.013127
-0.012971
-0.012867
-0.012837
-0.012672
-0.012657
-0.012672
-0.012548
-0.012599
-0.012645
-0.012473
-0.012336
-0.012324
-0.012190
-0.012098
-0.012038
-0.011951
-0.011895
-0.012047
-0.011963
-0.011855
-0.011898
-0.011884
-0.011842
-0.011676
-0.011615
-0.011530
-0.011621
-0.011588
-0.011403
-0.011318
-0.011338
-0.011245
-0.011145
-0.011037
-0.010919
-0.010895
-0.010900
-0.010846
-0.010582
-0.010584
-0.010427
-0.009901
-0.009779
-0.009627
-0.009584
-0.009628
-0.009593
-0.009553
-0.009324
-0.009364
-0.008816
-0.008234
-0.008190
-0.008066
-0.008173
-0.008094
-0.008182
-0.008105
-0.008094
-0.007864
-0.007011
-0.006863
-0.006790
-0.006863
-0.006904
-0.006640
-0.006793
-0.006775
-0.006833
-0.006212
-0.005465
-0.005540
-0.005489
-0.005655
-0.005382
-0.005473
-0.005670
-0.005666
-0.005581
-0.004504
-0.004119
-0.004216
-0.004392
-0.004435
-0.004118
-0.004555
-0.004813
-0.004840
-0.004281
-0.003061
-0.003062
-0.003129
-0.003393
-0.003107
-0.003193
-0.004199
-0.004224
-0.004071
-0.002516
-0.001656
-0.001728
-0.001800
-0.001839
-0.001598
-0.001976
-0.002221
-0.002248
-0.001887
-0.000777
-0.000537
-0.000598
-0.000653
-0.000571
-0.000565
-0.000911
-0.000865
-0.000939
-0.000262
0.000380
0.000305
0.000314
0.000246
0.000346
0.000253
0.000163
0.000208
0.000314
0.001048
0.001336
0.001155
0.001225
0.001185
0.001204
0.001131
0.001160
0.001253
0.001677
0.002278
0.002182
0.002154
0.002195
0.002078
0.002038
0.002108
0.002097
0.002100
0.002806
0.003089
0.002955
0.003109
0.003031
0.002930
0.003049
0.003095
0.002969
0.003288
0.003866
0.003917
0.003880
0.003998
0.003848
0.003824
0.003901
0.003758
0.003739
0.004135
0.004571
0.004440
0.004492
0.004458
0.004361
0.004407
0.004421
0.004285
0.004480
0.005037
0.005189
0.005069
0.005085
0.005038
0.004929
0.005011
0.004938
0.004866
0.005243
0.005571
0.005581
0.005535
0.005554
0.005463
0.005340
0.005313
0.005233
0.005307
0.005764
0.006008
0.005911
0.006000
0.005902
0.005835
0.005725
0.005635
0.005534
0.005827
0.006398
0.006488
0.006414
0.006333
0.006418
0.006336
0.006203
0.006195
0.006155
0.006678
0.007115
0.007105
0.007012
0.007025
0.007093
0.006948
0.006927
0.006909
0.007111
0.007964
0.008221
0.008127
0.008083
0.008137
0.008133
0.008060
0.007998
0.007926
0.008388
0.008870
0.008998
0.008861
0.008809
0.008864
0.008894
0.008845
0.008775
0.008810
0.009363
0.009759
0.009770
0.009708
0.009564
0.009558
0.009504
0.009425
0.009283
0.009383
0.009939
0.010203
0.010127
0.010034
0.009896
0.009849
0.009858
0.009675
0.009558
0.009701
0.010284
0.010455
0.010384
0.010272
0.010135
0.010159
0.010116
0.010044
0.009967
0.010267
0.010666
0.010709
0.010676
0.010525
0.010470
0.010445
0.010313
0.010336
0.010238
0.010646
0.010898
0.010879
0.010825
0.010668
0.010667
0.010568
0.010527
0.010432
0.010565
0.010890
0.010998
0.010958
0.010881
0.010814
0.010782
0.010695
0.010605
0.010647
0.010874
0.011185
0.011117
0.011135
0.011107
0.011065
0.011039
0.010936
0.010960
0.011028
0.011219
0.011274
0.011286
0.011388
0.011335
0.011298
0.011178
0.011091
0.011172
0.011288
0.011445
0.011348
0.011390
0.011518
0.011531
0.011572
0.011521
0.011545
0.011645
0.011788
0.011823
0.011783
0.011818
0.011877
0.011848
0.011796
0.011738
0.011758
0.011822
0.011762
0.011686
0.011616
0.011670
0.011627
0.011538
0.011481
0.011397
0.011460
0.011498
0.011452
0.011387
0.011373
0.011341
0.011292
0.011255
0.011114
0.011145
0.011111
0.011025
0.010903
0.010923
0.010755
0.010746
0.010685
0.010583
0.010523
0.010381
0.010489
0.010369
0.010267
0.010171
0.010148
0.010065
0.009965
0.009864
0.009779
0.009728
0.009690
0.009588
0.009514
0.009416
0.009362
0.009355
0.009207
0.009190
0.009094
0.009111
0.009106
0.009093
0.009091
0.008979
0.008947
0.008852
0.008807
0.008712
0.008720
0.008699
0.008558
0.008572
0.008530
0.008499
0.008491
0.008362
0.008308
0.008260
0.008185
0.008241
0.008237
0.008256
0.008348
0.008362
0.008311
0.008353
0.008373
0.008408
0.008410
0.008332
0.008333
0.008356
0.008408
0.008397
0.008364
0.008375
0.008332
0.008368
0.008350
0.008322
0.008315
0.008336
0.008332
0.008280
0.008305
0.008232
0.008245
0.008254
0.008288
0.008296
0.008269
0.008307
0.008265
0.008264
0.008271
0.008252
0.008253
0.008282
0.008241
0.008221
0.008210
0.008185
0.008173
0.008108
0.008096
0.008026
0.008054
0.008079
0.007938
0.007887
0.007853
0.007796
0.007756
0.007712
0.007655
0.007588
0.007529
0.007479
0.007399
0.007335
0.007262
0.007209
0.007119
0.007078
0.006968
0.006911
0.006834
0.006693
0.006650
0.006620
0.006503
0.006324
0.006341
0.006259
0.006142
0.006060
0.005839
0.005786
0.005696
0.005620
0.005533
0.005386
0.005370
0.005278
0.005167
0.005112
0.005075
0.005066
0.005092
0.005077
0.005050
0.005045
0.005078
0.005005
0.004993
0.005024
0.004955
0.004960
0.004892
0.004910
0.004835
0.004816
0.004804
0.004791
0.004738
0.004583
0.004604
0.004591
0.004565
0.004531
0.004502
0.004444
0.004452
0.004449
0.004411
0.004350
0.004320
0.004294
0.004269
0.004233
0.004189
0.004158
0.004140
0.004019
0.003877
0.003879
0.003838
0.003814
0.003785
0.003713
0.003703
0.003631
0.003592
0.003579
0.003477
0.003486
0.003449
0.003405
0.003350
0.003300
0.003299
0.003257
0.003161
0.003015
0.002940
0.002931
0.002907
0.002855
0.002813
0.002757
0.002704
0.002587
0.002635
0.002531
0.002489
0.002450
0.002395
0.002289
0.002292
0.002222
0.002165
0.002130
0.001966
0.001952
0.001873
0.001847
0.001816
0.001746
0.001680
0.001621
0.001569
0.001548
0.001574
0.001550
0.001495
0.001557
0.001524
0.001528
0.001465
0.001522
0.001490
0.001375
0.001373
0.001335
0.001317
0.001345
0.001340
0.001309
0.001305
0.001278
0.001331
0.001163
0.001171
0.001213
0.001182
0.001170
0.001154
0.001152
0.001115
0.001143
0.001058
0.001012
0.001016
0.000979
0.001033
0.000965
0.000975
0.000987
0.000971
0.000889
0.000693
0.000690
0.000736
0.000724
0.000708
0.000689
0.000721
0.000677
0.000657
0.000562
0.000422
0.000499
0.000458
0.000436
0.000443
0.000412
0.000394
0.000394
0.000381
0.000194
0.000122
0.000122
0.000166
0.000167
0.000139
0.000211
0.000148
0.000177
0.000029
-0.000125
-0.000102
-0.000077
-0.000094
-0.000085
-0.000072
-0.000081
-0.000108
-0.000133
-0.000280
-0.000372
-0.000344
-0.000356
-0.000341
-0.000344
-0.000314
-0.000230
-0.000274
-0.000368
-0.000653
-0.000659
-0.000592
-0.000633
-0.000591
-0.000592
-0.000580
-0.000620
-0.000579
-0.000707
-0.000883
-0.000879
-0.000886
-0.000857
-0.000821
-0.000811
-0.000854
-0.000814
-0.000889
-0.001097
-0.001109
-0.001081
-0.001135
-0.001041
-0.001051
-0.001017
-0.001073
-0.000982
-0.001283
-0.001582
-0.001487
-0.001528
-0.001474
-0.001516
-0.001537
-0.001559
-0.001512
-0.001531
-0.001720
-0.001746
-0.001680
-0.001793
-0.001769
-0.001788
-0.001726
-0.001780
-0.001798
-0.001805
-0.001977
-0.001975
-0.001971
-0.001970
-0.001951
-0.001956
-0.001967
-0.001957
-0.001947
-0.002103
-0.002193
-0.002179
-0.002246
-0.002203
-0.002177
-0.002143
-0.002150
-0.002099
-0.002134
-0.002261
-0.002232
-0.002218
-0.002269
-0.002272
-0.002221
-0.002252
-0.002203
-0.002216
-0.002446
-0.002451
-0.002410
-0.002458
-0.002481
-0.002456
-0.002457
-0.002464
-0.002434
-0.002487
-0.002660
-0.002691
-0.002616
-0.002658
-0.002637
-0.002663
-0.002611
-0.002602
-0.002625
-0.002673
-0.002818
-0.002818
-0.002872
-0.002779
-0.002795
-0.002863
-0.002766
-0.002791
-0.002801
-0.002926
-0.002991
-0.003009
-0.003002
-0.003036
-0.002990
-0.002934
-0.002967
-0.002982
-0.003001
-0.003055
-0.003026
-0.003035
-0.003059
-0.003005
-0.003012
-0.002978
-0.003043
-0.003039
-0.003145
-0.003244
-0.003230
-0.003222
-0.003154
-0.003211
-0.003188
-0.003198
-0.003168
-0.003193
-0.003404
-0.003464
-0.003399
-0.003426
-0.003474
-0.003414
-0.003394
-0.003410
-0.003366
-0.003496
-0.003618
-0.003554
-0.003585
-0.003540
-0.003529
-0.003549
-0.003547
-0.003507
-0.003454
-0.003687
-0.003742
-0.003745
-0.003701
-0.003683
-0.003635
-0.003656
-0.003737
-0.003637
-0.003720
-0.003920
-0.003876
-0.003846
-0.003881
-0.003862
-0.003851
-0.003832
-0.003918
-0.003857
-0.004104
-0.004235
-0.004183
-0.004259
-0.004245
-0.004293
-0.004242
-0.004299
-0.004325
-0.004392
-0.004510
-0.004617
-0.004626
-0.004631
-0.004694
-0.004677
-0.004701
-0.004755
-0.004725
-0.004884
-0.005029
-0.005018
-0.005021
-0.005036
-0.005065
-0.005021
-0.005096
-0.005122
-0.005147
-0.005335
-0.005368
-0.005364
-0.005373
-0.005375
-0.005433
-0.005418
-0.005445
-0.005455
-0.005551
-0.005706
-0.005738
-0.005755
-0.005732
-0.005737
-0.005748
-0.005763
-0.005805
-0.005745
-0.005769
-0.005783
-0.005741
-0.005775
-0.005758
-0.005758
-0.005807
-0.005780
-0.005825
-0.005788
-0.005824
-0.005768
-0.005809
-0.005799
-0.005743
-0.005792
-0.005789
-0.005790
-0.005753
-0.005773
-0.005795
-0.005822
-0.005757
-0.005757
-0.005775
-0.005748
-0.005744
-0.005788
-0.005722
-0.005712
-0.005697
-0.005660
-0.005673
-0.005657
-0.005627
-0.005718
-0.005649
-0.005674
-0.005719
-0.005713
-0.005739
-0.005721
-0.005713
-0.005639
-0.005710
-0.005683
-0.005663
-0.005653
-0.005656
-0.005652
-0.005665
-0.005680
-0.005622
-0.005615
-0.005631
-0.005643
-0.005616
-0.005631
-0.005608
-0.005573
-0.005566
-0.005662
-0.005636
-0.005568
-0.005510
-0.005609
-0.005620
-0.005611
-0.005516
-0.005519
-0.006027
-0.006044
-0.005919
-0.005433
-0.005317
-0.005377
-0.005340
-0.005343
-0.005290
-0.005243
-0.005207
-0.005251
-0.005257
-0.005146
-0.005106
-0.005147
-0.005074
-0.005072
-0.005050
-0.005046
-0.005006
-0.004947
-0.004934
-0.004913
-0.004872
-0.004852
-0.004852
-0.004762
-0.004760
-0.004740
-0.004750
-0.004655
-0.004616
-0.004637
-0.004589
-0.004559
-0.004498
-0.004489
-0.004415
-0.004393
-0.004406
-0.004332
-0.004297
-0.004254
-0.004220
-0.004186
-0.004108
-0.004118
-0.004091
-0.004050
-0.004063
-0.004003
-0.003982
-0.004007
-0.003990
-0.003960
-0.003953
-0.003917
-0.003900
-0.003913
-0.003869
-0.003905
-0.003877
-0.003848
-0.003830
-0.003816
-0.003829
-0.003771
-0.003780
-0.003827
-0.003786
-0.003721
-0.003722
-0.003724
-0.003717
-0.003717
-0.003679
-0.003658
-0.003664
-0.003595
-0.003596
-0.003587
-0.003537
-0.003559
-0.003570
-0.003555
-0.003490
-0.003482
-0.003420
-0.003415
-0.003448
-0.003388
-0.003302
-0.003321
-0.003362
-0.003328
-0.003268
-0.003252
-0.003280
-0.003220
-0.003221
-0.003183
-0.003136
-0.003157
-0.003142
-0.003118
-0.003033
-0.003021
-0.002979
-0.002988
-0.002959
-0.002940
-0.002957
-0.002913
-0.002908
-0.002898
-0.002835
-0.002812
-0.002793
-0.002766
-0.002749
-0.002683
-0.002715
-0.002641
-0.002646
-0.002645
-0.002535
-0.002485
-0.002500
-0.002473
-0.002499
-0.002429
-0.002409
-0.002432
-0.002415
-0.002378
-0.002379
-0.002358
-0.002367
-0.002361
-0.002342
-0.002329
-0.002299
-0.002326
-0.002282
-0.002307
-0.002267
-0.002258
-0.002236
-0.002262
-0.002027
-0.002004
-0.002008
-0.001989
-0.002021
-0.001926
-0.002005
-0.001957
-0.001997
-0.001834
-0.001679
-0.001690
-0.001680
-0.001670
-0.001669
-0.001698
-0.001667
-0.001660
-0.001646
-0.001478
-0.001338
-0.001404
-0.001340
-0.001368
-0.001435
-0.001368
-0.001355
-0.001375
-0.001268
-0.001087
-0.001102
-0.001076
-0.001108
-0.001089
-0.001106
-0.001142
-0.001094
-0.001129
-0.000953
-0.000782
-0.000813
-0.000796
-0.000831
-0.000871
-0.000876
-0.000852
-0.000830
-0.000794
-0.000542
-0.000550
-0.000531
-0.000532
-0.000581
-0.000550
-0.000565
-0.000518
-0.000556
-0.000488
-0.000361
-0.000417
-0.000381
-0.000365
-0.000358
-0.000343
-0.000375
-0.000423
-0.000379
-0.000154
-0.000073
-0.000076
-0.000107
-0.000107
-0.000085
-0.000092
-0.000135
-0.000095
0.000015
0.000229
0.000168
0.000236
0.000205
0.000160
0.000216
0.000135
0.000226
0.000203
0.000280
0.000291
0.000260
0.000298
0.000263
0.000305
0.000320
0.000337
0.000284
0.000353
0.000521
0.000554
0.000564
0.000533
0.000521
0.000556
0.000484
0.000595
0.000492
0.000748
0.000938
0.000874
0.000961
0.000877
0.000900
0.000882
0.000929
0.000908
0.000886
0.000957
0.001009
0.000990
0.000986
0.001014
0.001028
0.000969
0.000999
0.000935
0.001049
0.001162
0.001113
0.001172
0.001108
0.001116
0.001113
0.001117
0.001111
0.001101
0.001176
0.001253
0.001229
0.001219
0.001185
0.001244
0.001218
0.001211
0.001227
0.001236
0.001351
0.001310
0.001388
0.001329
0.001307
0.001328
0.001312
0.001290
0.001323
0.001363
0.001312
0.001274
0.001280
0.001293
0.001353
0.001322
0.001305
0.001269
0.001324
0.001409
0.001424
0.001423
0.001400
0.001340
0.001394
0.001399
0.001378
0.001415
0.001426
0.001380
0.001383
0.001418
0.001386
0.001375
0.001338
0.001368
0.001337
0.001384
0.001499
0.001462
0.001492
0.001483
0.001455
0.001468
0.001445
0.001411
0.001443
0.001445
0.001477
0.001440
0.001462
0.001433
0.001439
0.001457
0.001448
0.001466
0.001418
0.001484
0.001358
0.001412
0.001448
0.001392
0.001460
0.001439
0.001351
0.001414
0.001488
0.001406
0.001387
0.001402
0.001388
0.001410
0.001425
0.001438
0.001408
0.001375
0.001300
0.001248
0.001278
0.001291
0.001291
0.001239
0.001285
0.001230
0.001218
0.001266
0.001291
0.001238
0.001218
0.001224
0.001202
0.001179
0.001182
0.001174
0.001196
0.001238
0.001095
0.001129
0.001075
0.001078
0.001089
0.001050
0.001036
0.001050
0.001014
0.001034
0.001105
0.001094
0.001078
0.001029
0.001035
0.001086
0.001077
0.001081
0.001042
0.000943
0.000965
0.000914
0.000906
0.000912
0.000899
0.000939
0.000907
0.000886
0.000877
0.000799
0.000852
0.000791
0.000803
0.000780
0.000780
0.000826
0.000793
0.000788
0.000683
0.000652
0.000669
0.000707
0.000708
0.000693
0.000661
0.000630
0.000656
0.000649
0.000584
0.000546
0.000546
0.000579
0.000536
0.000548
0.000525
0.000539
0.000525
0.000195
0.000130
0.000201
0.000152
0.000209
0.000193
0.000212
0.000192
0.000191
0.000134
-0.000061
-0.000089
-0.000085
-0.000076
-0.000106
-0.000125
-0.000104
-0.000054
-0.000050
-0.000098
-0.000183
-0.000172
-0.000197
-0.000203
-0.000149
-0.000192
-0.000186
-0.000140
-0.000130
-0.000317
-0.000395
-0.000397
-0.000392
-0.000397
-0.000399
-0.000393
-0.000394
-0.000376
-0.000492
-0.000634
-0.000638
-0.000598
-0.000631
-0.000597
-0.000597
-0.000598
-0.000616
-0.000588
-0.000689
-0.000773
-0.000715
-0.000724
-0.000670
-0.000750
-0.000708
-0.000719
-0.000683
-0.000722
-0.000954
-0.000946
-0.000955
-0.000888
-0.000906
-0.000903
-0.000894
-0.000892
-0.000876
-0.001039
-0.001156
-0.001159
-0.001134
-0.001131
-0.001156
-0.001129
-0.001109
-0.001080
-0.001125
-0.001282
-0.001347
-0.001365
-0.001359
-0.001339
-0.001346
-0.001350
-0.001339
-0.001282
-0.001381
-0.001567
-0.001536
-0.001567
-0.001521
-0.001482
-0.001513
-0.001527
-0.001508
-0.001566
-0.001721
-0.001718
-0.001704
-0.001686
-0.001714
-0.001699
-0.001720
-0.001718
-0.001686
-0.001672
-0.001670
-0.001690
-0.001660
-0.001640
-0.001615
-0.001626
-0.001634
-0.001646
-0.001622
-0.001665
-0.001788
-0.001756
-0.001755
-0.001677
-0.001711
-0.001616
-0.001621
-0.001708
-0.001603
-0.001630
-0.001613
-0.001646
-0.001659
-0.001602
-0.001663
-0.001627
-0.001614
-0.001620
-0.001580
-0.001649
-0.001571
-0.001575
-0.001591
-0.001573
-0.001569
-0.001554
-0.001525
-0.001501
-0.001543
-0.001602
-0.001486
-0.001497
-0.001526
-0.001512
-0.001524
-0.001471
-0.001485
-0.001421
-0.001516
-0.001527
-0.001475
-0.001500
-0.001427
-0.001454
-0.001460
-0.001473
-0.001518
-0.001572
-0.001554
-0.001502
-0.001545
-0.001522
-0.001545
-0.001525
-0.001533
-0.001519
-0.001529
-0.001473
-0.001467
-0.001486
-0.001461
-0.001488
-0.001460
-0.001473
-0.001492
-0.001506
-0.001475
-0.001514
-0.001388
-0.001374
-0.001410
-0.001371
-0.001390
-0.001435
-0.001372
-0.001399
-0.001395
-0.001416
-0.001390
-0.001402
-0.001363
-0.001315
-0.001322
-0.001352
-0.001373
-0.001289
-0.001311
-0.001342
-0.001307
-0.001259
-0.001291
-0.001287
-0.001311
-0.001301
-0.001271
-0.001269
-0.001273
-0.001297
-0.001202
-0.001243
-0.001241
-0.001238
-0.001224
-0.001201
-0.001229
-0.001171
-0.001182
-0.001190
-0.001214
-0.001212
-0.001194
-0.001199
-0.001165
-0.001168
-0.001143
-0.001182
-0.001166
-0.001162
-0.001123
-0.001171
-0.001198
-0.001165
-0.001141
-0.001154
-0.001148
-0.001147
-0.001137
-0.001098
-0.001125
-0.001114
-0.001095
-0.001098
-0.001134
-0.001136
-0.001142
-0.001066
-0.001075
-0.001088
-0.001091
-0.001070
-0.000994
-0.001038
-0.001008
-0.001006
-0.001003
-0.001046
-0.001015
-0.001009
-0.001036
-0.000995
-0.000976
-0.000979
-0.001022
-0.000988
-0.001016
-0.001019
-0.000960
-0.000974
-0.000982
-0.000978
-0.000981
-0.000941
-0.000987
-0.000919
-0.000898
-0.000913
-0.000923
-0.000959
-0.000915
-0.000887
-0.000869
-0.000893
-0.000883
-0.000849
-0.000914
-0.000896
-0.000870
-0.000846
-0.000854
-0.000889
-0.000847
-0.000858
-0.000849
-0.000824
-0.000874
-0.000849
-0.000827
-0.000823
-0.000807
-0.000805
-0.000779
-0.000790
-0.000810
-0.000779
-0.000773
-0.000772
-0.000740
-0.000811
-0.000786
-0.000768
-0.000744
-0.000747
-0.000778
-0.000747
-0.000766
-0.000732
-0.000758
-0.000719
-0.000718
-0.000744
-0.000700
-0.000712
-0.000729
-0.000743
-0.000718
-0.000679
-0.000740
-0.000737
-0.000709
-0.000690
-0.000718
-0.000743
-0.000701
-0.000683
-0.000663
-0.000716
-0.000678
-0.000712
-0.000668
-0.000635
-0.000705
-0.000623
-0.000625
-0.000682
-0.000687
-0.000677
-0.000661
-0.000639
-0.000661
-0.000614
-0.000601
-0.000622
-0.000583
-0.000533
-0.000568
-0.000591
-0.000565
-0.000588
-0.000554
-0.000545
-0.000539
-0.000539
-0.000545
-0.000569
-0.000553
-0.000542
-0.000542
-0.000520
-0.000547
-0.000559
-0.000534
-0.000548
-0.000522
-0.000538
-0.000550
-0.000503
-0.000527
-0.000492
-0.000485
-0.000517
-0.000501
-0.000525
-0.000465
-0.000503
-0.000525
-0.000490
-0.000524
-0.000459
-0.000446
-0.000439
-0.000460
-0.000449
-0.000411
-0.000544
-0.000524
-0.000552
-0.000416
-0.000496
-0.000553
-0.000524
-0.000509
-0.000480
-0.000959
-0.001013
-0.000931
-0.000409
-0.000300
-0.000383
-0.000391
-0.000387
-0.000349
-0.000419
-0.000351
-0.000355
-0.000346
-0.000341
-0.000339
-0.000347
-0.000311
-0.000345
-0.000341
-0.000293
-0.000330
-0.000304
-0.000278
-0.000314
-0.000278
-0.000299
-0.000300
-0.000341
-0.000308
-0.000299
-0.000301
-0.000319
-0.000335
-0.000328
-0.000285
-0.000317
-0.000280
-0.000261
-0.000276
-0.000246
-0.000247
-0.000240
-0.000214
-0.000245
-0.000258
-0.000222
-0.000234
-0.000225
-0.000353
-0.000439
-0.000471
-0.000511
-0.000530
-0.000549
-0.000626
-0.000707
-0.000734
-0.000687
-0.000672
-0.000619
-0.000582
-0.000519
-0.000557
-0.000560
-0.000522
-0.000548
-0.000378
-0.000341
-0.000137
-0.000020
0.000240
0.000457
0.000432
0.000702
0.000802
0.001026
0.001203
0.001480
0.001623
0.001676
0.002098
0.001943
0.001988
0.002381
0.002509
0.002750
0.002827
0.003116
0.003213
0.003433
0.003284
0.002024
0.001883
0.001902
0.001901
0.001992
0.002077
0.002317
0.002288
0.002384
0.001310
-0.000152
-0.000415
-0.000582
-0.000613
-0.000589
-0.000539
-0.000456
-0.000450
-0.000728
-0.001951
-0.002733
-0.002979
-0.003156
-0.003048
-0.003205
-0.003514
-0.003789
-0.004111
-0.004518
-0.004887
-0.005262
-0.005841
-0.006226
-0.006304
-0.006542
-0.006985
-0.006905
-0.007069
-0.004160
-0.001567
-0.001914
-0.001998
-0.002527
-0.002627
-0.003394
-0.003733
-0.004410
-0.004026
0.000257
0.001477
0.000710
0.000347
-0.000350
-0.000293
-0.000784
-0.000654
-0.001473
0.001542
0.006377
0.006175
0.005921
0.005458
0.005234
0.005197
0.005175
0.004839
0.004437
0.009424
0.012153
0.011183
0.011492
0.010986
0.011257
0.011024
0.011259
0.010241
0.012059
0.017749
0.018060
0.017870
0.018046
0.017950
0.018236
0.018031
0.018274
0.017498
0.022042
0.025986
0.025114
0.025644
0.025310
0.025717
0.025506
0.025808
0.025432
0.026326
0.032495
0.033814
0.033358
0.033755
0.033492
0.033959
0.033642
0.034239
0.033366
0.036897
0.041947
0.041270
0.041683
0.041586
0.041807
0.041753
0.041885
0.041999
0.041851
0.047906
0.050293
0.049495
0.050083
0.049602
0.050121
0.049553
0.050301
0.049318
0.051799
0.057870
0.057539
0.057430
0.057065
0.056663
0.056443
0.055821
0.055775
0.054628
0.059786
0.063126
0.061824
0.062275
0.061659
0.061981
0.061396
0.061856
0.061176
0.062367
0.068752
0.069410
0.068795
0.068865
0.068538
0.068799
0.068235
0.068567
0.067365
0.071607
0.076256
0.075125
0.075406
0.075029
0.075410
0.075093
0.075337
0.074849
0.075115
0.081683
0.083306
0.082648
0.083076
0.082667
0.082931
0.082358
0.083111
0.081743
0.084997
0.090686
0.090097
0.090443
0.090263
0.090192
0.089976
0.089908
0.089676
0.088746
0.094987
0.098099
0.096910
0.097331
0.096906
0.097249
0.096603
0.097041
0.095841
0.097363
0.103849
0.104140
0.103392
0.103361
0.102890
0.103099
0.102696
0.102733
0.101783
0.106166
0.110410
0.109465
0.109497
0.109003
0.108632
0.108294
0.108432
0.108304
0.109108
0.113059
0.114333
0.113972
0.114000
0.113731
0.113196
0.112713
0.111797
0.111536
0.108158
0.103236
0.102765
0.102114
0.101651
0.101340
0.101429
0.101094
0.100801
0.100578
0.093624
0.089920
0.090806
0.089874
0.089829
0.089181
0.089540
0.088696
0.089497
0.086625
0.078818
0.078765
0.078778
0.078131
0.078211
0.077706
0.077837
0.077208
0.078140
0.071936
0.066694
0.068127
0.067258
0.067329
0.066765
0.066899
0.066305
0.066357
0.065054
0.057394
0.055937
0.056515
0.055677
0.056123
0.055634
0.056050
0.055162
0.056142
0.051623
0.045303
0.046259
0.045725
0.045877
0.045723
0.045584
0.045218
0.045144
0.045026
0.037683
0.034825
0.035719
0.034978
0.035425
0.034741
0.035162
0.034338
0.035335
0.032117
0.025178
0.025568
0.025441
0.025410
0.025410
0.025224
0.025371
0.024980
0.025683
0.019282
0.015325
0.016651
0.015785
0.016144
0.015605
0.015977
0.015304
0.016050
0.014288
0.006709
0.006093
0.006359
0.005890
0.006212
0.005861
0.006372
0.005628
0.006949
0.001690
-0.003911
-0.002550
-0.003274
-0.002905
-0.003207
-0.002950
-0.003250
-0.003002
-0.003300
-0.010866
-0.012789
-0.011869
-0.012553
-0.012052
-0.012534
-0.011982
-0.012767
-0.011252
-0.015062
-0.021674
-0.020666
-0.021037
-0.020733
-0.020699
-0.020461
-0.020375
-0.020551
-0.019741
-0.026785
-0.029916
-0.028585
-0.029260
-0.028604
-0.029139
-0.028239
-0.029105
-0.028132
-0.030395
-0.037757
-0.037346
-0.037068
-0.037142
-0.036896
-0.036925
-0.036404
-0.036897
-0.035548
-0.041827
-0.046212
-0.044462
-0.045182
-0.044548
-0.044812
-0.044138
-0.044734
-0.043817
-0.045227
-0.053609
-0.054513
-0.053846
-0.054196
-0.053576
-0.053605
-0.052762
-0.053647
-0.052705
-0.057014
-0.062257
-0.061621
-0.061972
-0.061811
-0.061984
-0.061575
-0.061183
-0.060791
-0.060010
-0.059710
-0.059175
-0.058691
-0.058356
-0.058372
-0.058503
-0.058415
-0.058096
-0.058097
-0.056986
-0.054820
-0.054706
-0.054742
-0.054442
-0.054290
-0.054047
-0.053832
-0.053398
-0.053490
-0.051399
-0.049907
-0.050385
-0.050304
-0.050371
-0.050037
-0.050127
-0.049913
-0.049972
-0.049489
-0.047083
-0.046788
-0.046748
-0.046502
-0.046458
-0.045974
-0.046174
-0.045681
-0.045856
-0.044372
-0.042440
-0.042764
-0.042313
-0.042492
-0.042274
-0.042252
-0.042296
-0.042147
-0.042113
-0.039864
-0.039077
-0.039158
-0.038836
-0.038896
-0.038602
-0.038802
-0.038541
-0.038823
-0.037757
-0.035784
-0.035853
-0.035597
-0.035506
-0.035347
-0.035436
-0.035487
-0.035424
-0.035376
-0.033729
-0.032937
-0.032943
-0.032705
-0.032701
-0.032590
-0.032757
-0.032646
-0.032837
-0.032525
-0.032007
-0.032049
-0.031907
-0.031938
-0.031735
-0.031561
-0.031465
-0.031233
-0.031145
-0.030809
-0.030804
-0.030769
-0.030665
-0.030652
-0.030526
-0.030578
-0.030390
-0.030461
-0.030318
-0.030077
-0.030072
-0.029849
-0.029709
-0.029580
-0.029494
-0.029344
-0.029174
-0.029166
-0.029062
-0.028970
-0.028862
-0.028743
-0.028647
-0.028557
-0.028431
-0.028349
-0.028334
-0.028293
-0.028143
-0.028075
-0.028047
-0.027982
-0.028025
-0.027848
-0.027696
-0.027673
-0.027479
-0.027453
-0.027301
-0.027246
-0.027170
-0.027088
-0.027139
-0.026979
-0.026871
-0.026789
-0.026776
-0.026733
-0.026756
-0.026753
-0.026616
-0.026598
-0.026604
-0.026457
-0.026293
-0.026195
-0.026155
-0.026093
-0.026231
-0.026096
-0.025974
-0.025937
-0.025872
-0.025814
-0.025681
-0.025654
-0.025483
-0.025541
-0.025627
-0.025511
-0.025656
-0.025583
-0.025586
-0.025609
-0.025452
-0.025304
-0.025138
-0.025208
-0.024930
-0.024823
-0.024849
-0.024575
-0.024613
-0.024555
-0.024232
-0.024113
-0.024211
-0.024307
-0.023969
-0.024066
-0.023985
-0.023688
-0.023778
-0.023612
-0.023429
-0.023387
-0.023555
-0.023429
-0.023188
-0.023252
-0.022994
-0.022869
-0.022818
-0.022524
-0.022461
-0.022365
-0.022426
-0.022341
-0.022201
-0.022318
-0.022104
-0.022155
-0.021986
-0.021777
-0.021816
-0.021705
-0.021707
-0.021537
-0.021515
-0.021507
-0.021314
-0.021155
-0.021004
-0.020965
-0.020894
-0.020835
-0.020874
-0.020785
-0.020787
-0.020757
-0.020707
-0.020657
-0.020631
-0.020661
-0.020482
-0.020421
-0.020410
-0.020273
-0.020315
-0.020326
-0.020161
-0.020182
-0.020228
-0.020046
-0.019962
-0.019934
-0.019848
-0.019762
-0.019760
-0.019780
-0.019650
-0.019842
-0.019825
-0.019634
-0.019747
-0.019857
-0.019822
-0.019746
-0.019699
-0.019558
-0.019438
-0.019455
-0.019151
-0.019017
-0.019050
-0.018875
-0.018828
-0.018678
-0.018578
-0.018423
-0.018411
-0.018289
-0.018064
-0.018242
-0.018161
-0.018086
-0.018082
-0.017970
-0.017823
-0.017756
-0.017779
-0.017537
-0.017488
-0.017582
-0.017423
-0.017368
-0.017212
-0.017047
-0.017009
-0.017013
-0.016910
-0.016698
-0.016799
-0.016719
-0.016579
-0.016619
-0.016461
-0.016428
-0.016458
-0.016375
-0.016076
-0.016006
-0.016043
-0.015940
-0.015852
-0.015793
-0.015674
-0.015700
-0.015719
-0.015492
-0.015365
-0.015367
-0.015351
-0.015254
-0.015238
-0.015294
-0.015213
-0.015195
-0.015128
-0.014941
-0.014928
-0.014954
-0.014920
-0.014840
-0.014875
-0.014876
-0.014789
-0.014765
-0.014683
-0.014531
-0.014516
-0.014674
-0.014571
-0.014456
-0.014474
-0.014393
-0.014318
-0.014390
-0.014236
-0.014110
-0.014328
-0.014411
-0.014285
-0.014221
-0.014243
-0.014093
-0.014079
-0.014035
-0.013799
-0.013712
-0.013809
-0.013732
-0.013564
-0.013539
-0.013460
-0.013357
-0.013443
-0.013335
-0.013117
-0.013078
-0.013197
-0.013170
-0.012983
-0.012888
-0.012761
-0.012778
-0.012838
-0.012639
-0.012391
-0.012472
-0.012656
-0.012578
-0.012405
-0.012178
-0.012091
-0.012214
-0.012140
-0.011980
-0.011875
-0.012089
-0.012424
-0.012346
-0.012023
-0.011590
-0.011575
-0.011660
-0.011728
-0.011485
-0.011671
-0.012599
-0.012752
-0.012502
-0.011486
-0.011026
-0.011035
-0.010846
-0.010860
-0.010715
-0.010956
-0.011169
-0.011115
-0.010864
-0.010505
-0.010380
-0.010384
-0.010394
-0.010242
-0.010178
-0.010417
-0.010524
-0.010384
-0.010208
-0.010095
-0.010083
-0.010092
-0.010166
-0.009822
-0.009741
-0.009876
-0.009830
-0.009824
-0.009801
-0.009760
-0.009646
-0.009760
-0.009512
-0.008839
-0.008762
-0.008798
-0.008763
-0.008762
-0.008695
-0.008622
-0.008569
-0.008595
-0.007899
-0.007371
-0.007484
-0.007411
-0.007345
-0.007305
-0.007262
-0.007149
-0.007271
-0.006997
-0.006215
-0.006020
-0.006069
-0.005953
-0.005842
-0.005904
-0.005844
-0.005764
-0.005890
-0.005367
-0.004799
-0.004798
-0.004750
-0.004607
-0.004573
-0.004654
-0.004566
-0.004621
-0.004546
-0.003857
-0.003537
-0.003611
-0.003554
-0.003500
-0.003561
-0.003514
-0.003397
-0.003510
-0.003161
-0.002466
-0.002474
-0.002535
-0.002493
-0.002478
-0.002501
-0.002466
-0.002427
-0.002459
-0.001834
-0.001447
-0.001563
-0.001580
-0.001557
-0.001669
-0.001645
-0.001531
-0.001591
-0.001392
-0.000718
-0.000550
-0.000727
-0.000657
-0.000714
-0.000807
-0.000742
-0.000685
-0.000737
-0.000243
0.000247
0.000209
0.000180
0.000176
0.000033
0.000031
0.000196
0.000045
0.000166
0.000884
0.001060
0.000936
0.001009
0.000927
0.000836
0.000973
0.000992
0.000869
0.001212
0.001663
0.001642
0.001519
0.001566
0.001476
0.001473
0.001533
0.001384
0.001442
0.001989
0.002319
0.002127
0.002047
0.001971
0.001957
0.001948
0.001906
0.001716
0.002001
0.002534
0.002487
0.002326
0.002230
0.002153
0.002113
0.002158
0.002091
0.001889
0.002334
0.002674
0.002501
0.002401
0.002299
0.002320
0.002277
0.002287
0.002122
0.002120
0.002699
0.002736
0.002575
0.002515
0.002450
0.002385
0.002404
0.002387
0.002108
0.002396
0.002788
0.002722
0.002599
0.002472
0.002447
0.002437
0.002479
0.002336
0.002247
0.002776
0.003032
0.002903
0.002832
0.002873
0.002761
0.002761
0.002807
0.002585
0.002877
0.003423
0.003414
0.003334
0.003340
0.003247
0.003218
0.003295
0.003153
0.003089
0.003658
0.003996
0.003878
0.003841
0.003789
0.003763
0.003725
0.003706
0.003563
0.003685
0.004465
0.004614
0.004449
0.004389
0.004323
0.004312
0.004270
0.004167
0.004007
0.004347
0.004749
0.004639
0.004530
0.004409
0.004361
0.004375
0.004243
0.004101
0.004060
0.004533
0.004631
0.004478
0.004392
0.004272
0.004261
0.004167
0.004137
0.003859
0.004041
0.004322
0.004340
0.004244
0.004120
0.004055
0.003979
0.003950
0.003785
0.003658
0.003821
0.004060
0.003974
0.003892
0.003783
0.003748
0.003725
0.003647
0.003499
0.003453
0.003688
0.003877
0.003755
0.003651
0.003604
0.003573
0.003537
0.003485
0.003361
0.003396
0.003677
0.003811
0.003633
0.003576
0.003596
0.003558
0.003554
0.003456
0.003370
0.003599
0.003886
0.003752
0.003678
0.003721
0.003750
0.003750
0.003671
0.003669
0.003611
0.003988
0.004104
0.003912
0.003939
0.003964
0.003926
0.003869
0.003885
0.003740
0.003849
0.004055
0.004004
0.003923
0.003904
0.003913
0.003910
0.003927
0.003849
0.003789
0.003941
0.004079
0.003932
0.003857
0.003949
0.003955
0.003907
0.003869
0.003879
0.003818
0.003925
0.003985
0.003891
0.003870
0.003921
0.003916
0.003856
0.003872
0.003842
0.003813
0.003771
0.003774
0.003738
0.003778
0.003808
0.003735
0.003713
0.003662
0.003607
0.003734
0.003757
0.003732
0.003764
0.003738
0.003739
0.003733
0.003672
0.003645
0.003646
0.003604
0.003630
0.003654
0.003614
0.003568
0.003641
0.003590
0.003583
0.003569
0.003627
0.003682
0.003632
0.003715
0.003673
0.003674
0.003639
0.003635
0.003620
0.003609
0.003610
0.003544
0.003621
0.003643
0.003565
0.003559
0.003510
0.003538
0.003554
0.003613
0.003671
0.003661
0.003611
0.003598
0.003637
0.003597
0.003586
0.003499
0.003575
0.003562
0.003551
0.003591
0.003520
0.003516
0.003499
0.003494
0.003491
0.003452
0.003470
0.003545
0.003543
0.003535
0.003514
0.003496
0.003498
0.003455
0.003441
0.003462
0.003439
0.003472
0.003453
0.003424
0.003392
0.003432
0.003394
0.003365
0.003350
0.003371
0.003297
0.003329
0.003299
0.003293
0.003294
0.003240
0.003304
0.003279
0.003271
0.003287
0.003345
0.003300
0.003305
0.003330
0.003318
0.003295
0.003274
0.003343
0.003322
0.003281
0.003248
0.003250
0.003216
0.003180
0.003204
0.003176
0.003159
0.003165
0.003177
0.003117
0.003170
0.003130
0.003123
0.003149
0.003109
0.003105
0.003097
0.003084
0.003019
0.003028
0.003044
0.003027
0.003009
0.003012
0.003033
0.003056
0.003001
0.003029
0.003050
0.002963
0.002976
0.002936
0.002919
0.002884
0.002882
0.002901
0.002898
0.002853
0.002721
0.002745
0.002752
0.002720
0.002750
0.002718
0.002751
0.002750
0.002726
0.002728
0.002662
0.002662
0.002673
0.002624
0.002645
0.002683
0.002623
0.002615
0.002659
0.002634
0.002618
0.002613
0.002545
0.002524
0.002562
0.002529
0.002582
0.002579
0.002470
0.002392
0.002327
0.002373
0.002355
0.002335
0.002370
0.002396
0.002310
0.002365
0.002365
0.002338
0.002341
0.002294
0.002310
0.002273
0.002243
0.002232
0.002265
0.002207
0.002114
0.002093
0.002056
0.002072
0.002093
0.002078
0.002097
0.002085
0.002059
0.001991
0.002023
0.002018
0.001983
0.002012
0.001979
0.002033
0.002021
0.002009
0.001933
0.001815
0.001891
0.001820
0.001866
0.001853
0.001811
0.001839
0.001782
0.001807
0.001779
0.001775
0.001834
0.001855
0.001845
0.001775
0.001752
0.001718
0.001719
0.001752
0.001575
0.001511
0.001575
0.001562
0.001539
0.001517
0.001510
0.001552
0.001569
0.001574
0.001526
0.001532
0.001570
0.001499
0.001509
0.001491
0.001451
0.001458
0.001453
0.001349
0.001312
0.001311
0.001312
0.001330
0.001283
0.001334
0.001264
0.001294
0.001305
0.001129
0.001185
0.001177
0.001161
0.001127
0.001148
0.001140
0.001090
0.001129
0.001027
0.001006
0.000982
0.000933
0.000990
0.000933
0.000950
0.000885
0.000944
0.000863
0.000680
0.000696
0.000670
0.000707
0.000694
0.000627
0.000670
0.000680
0.000646
0.000491
0.000392
0.000405
0.000399
0.000418
0.000358
0.000368
0.000368
0.000432
0.000378
0.000146
0.000102
0.000169
0.000129
0.000158
0.000127
0.000075
0.000113
0.000108
0.000029
-0.000142
-0.000124
-0.000153
-0.000124
-0.000098
-0.000112
-0.000142
-0.000175
-0.000127
-0.000397
-0.000432
-0.000324
-0.000380
-0.000376
-0.000376
-0.000383
-0.000391
-0.000358
-0.000481
-0.000663
-0.000597
-0.000628
-0.000626
-0.000620
-0.000608
-0.000618
-0.000633
-0.000581
-0.000811
-0.000893
-0.000840
-0.000864
-0.000832
-0.000886
-0.000837
-0.000928
-0.000848
-0.000919
-0.001127
-0.001085
-0.001112
-0.001139
-0.001139
-0.001160
-0.001144
-0.001172
-0.001100
-0.001383
-0.001670
-0.001576
-0.001670
-0.001629
-0.001642
-0.001639
-0.001624
-0.001611
-0.001593
-0.001790
-0.001843
-0.001794
-0.001833
-0.001773
-0.001764
-0.001786
-0.001787
-0.001748
-0.001853
-0.002022
-0.002007
-0.002011
-0.002042
-0.001990
-0.001880
-0.001935
-0.002004
-0.002009
-0.002158
-0.002236
-0.002202
-0.002201
-0.002221
-0.002245
-0.002209
-0.002216
-0.002229
-0.002237
-0.002307
-0.002302
-0.002329
-0.002287
-0.002291
-0.002314
-0.002278
-0.002316
-0.002285
-0.002368
-0.002512
-0.002444
-0.002475
-0.002470
-0.002499
-0.002530
-0.002521
-0.002473
-0.002471
-0.002642
-0.002642
-0.002682
-0.002657
-0.002717
-0.002687
-0.002648
-0.002601
-0.002617
-0.002733
-0.002918
-0.002853
-0.002841
-0.002811
-0.002809
-0.002863
-0.002800
-0.002825
-0.002810
-0.002958
-0.003082
-0.003005
-0.003039
-0.003043
-0.003051
-0.002983
-0.002995
-0.003014
-0.003011
-0.003112
-0.003060
-0.003095
-0.003116
-0.003076
-0.003022
-0.003047
-0.003051
-0.003043
-0.003238
-0.003283
-0.003278
-0.003318
-0.003285
-0.003284
-0.003215
-0.003277
-0.003201
-0.003282
-0.003444
-0.003509
-0.003496
-0.003428
-0.003453
-0.003433
-0.003439
-0.003388
-0.003379
-0.003548
-0.003657
-0.003595
-0.003642
-0.003610
-0.003612
-0.003583
-0.003559
-0.003545
-0.003521
-0.003726
-0.003814
-0.003786
-0.003788
-0.003738
-0.003736
-0.003716
-0.003754
-0.003662
-0.003737
-0.004011
-0.003898
-0.004006
-0.004023
-0.004028
-0.003883
-0.003928
-0.003940
-0.003885
-0.004056
-0.004148
-0.004617
-0.004652
-0.004672
-0.004110
-0.003951
-0.004022
-0.003932
-0.004092
-0.004251
-0.004232
-0.004180
-0.004231
-0.004146
-0.004153
-0.004106
-0.004130
-0.004077
-0.004209
-0.004329
-0.004280
-0.004331
-0.004320
-0.004294
-0.004271
-0.004271
-0.004282
-0.004226
-0.004384
-0.004461
-0.004462
-0.004504
-0.004416
-0.004410
-0.004417
-0.004443
-0.004385
-0.004498
-0.004605
-0.004541
-0.004557
-0.004566
-0.004562
-0.004545
-0.004513
-0.004531
-0.004523
-0.004504
-0.004531
-0.004497
-0.004481
-0.004499
-0.004465
-0.004377
-0.004326
-0.004277
-0.004331
-0.004359
-0.004365
-0.004321
-0.004290
-0.004308
-0.004281
-0.004263
-0.004264
-0.004284
-0.004262
-0.004275
-0.004241
-0.004218
-0.004265
-0.004237
-0.004155
-0.004161
-0.004166
-0.004158
-0.004139
-0.004164
-0.004159
-0.004097
-0.004070
-0.004093
-0.004092
-0.004136
-0.004078
-0.004030
-0.004000
-0.004012
-0.003958
-0.003976
-0.003964
-0.003944
-0.003996
-0.003945
-0.003924
-0.003885
-0.003916
-0.003888
-0.003912
-0.003897
-0.003861
-0.003876
-0.003810
-0.003829
-0.003805
-0.003799
-0.003843
-0.003785
-0.003803
-0.003793
-0.003739
-0.003757
-0.003713
-0.003700
-0.003698
-0.003639
-0.003627
-0.003633
-0.003621
-0.003618
-0.003625
-0.003595
-0.003547
-0.003560
-0.003593
-0.003520
-0.003565
-0.003569
-0.003508
-0.003541
-0.003499
-0.003474
-0.003459
-0.003490
-0.003463
-0.003482
-0.003477
-0.003433
-0.003458
-0.003431
-0.003442
-0.003456
-0.003376
-0.003393
-0.003352
-0.003393
-0.003382
-0.003373
-0.003375
-0.003301
-0.003324
-0.003309
-0.003295
-0.003263
-0.003290
-0.003257
-0.003283
-0.003248
-0.003220
-0.003256
-0.003213
-0.003206
-0.003207
-0.003267
-0.003162
-0.003114
-0.003160
-0.003176
-0.003169
-0.003147
-0.003178
-0.003135
-0.003132
-0.003158
-0.003090
-0.003087
-0.003126
-0.003058
-0.003040
-0.003019
-0.003009
-0.003023
-0.002965
-0.003009
-0.002992
-0.003000
-0.003004
-0.002965
-0.002996
-0.002938
-0.002941
-0.002932
-0.002879
-0.002895
-0.002880
-0.002896
-0.002879
-0.002841
-0.002879
-0.002904
-0.002845
-0.002817
-0.002815
-0.002845
-0.002829
-0.002813
-0.002861
-0.002797
-0.002753
-0.002745
-0.002781
-0.002772
-0.002723
-0.002754
-0.002690
-0.002678
-0.002666
-0.002703
-0.002681
-0.002653
-0.002645
-0.002689
-0.002684
-0.002649
-0.002654
-0.002649
-0.002649
-0.002581
-0.002587
-0.002548
-0.002633
-0.002590
-0.002553
-0.002562
-0.002569
-0.002513
-0.002537
-0.002545
-0.002514
-0.002515
-0.002498
-0.002531
-0.002516
-0.002494
-0.002405
-0.002358
-0.002354
-0.002347
-0.002357
-0.002368
-0.002346
-0.002339
-0.002288
-0.002332
-0.002278
-0.002295
-0.002275
-0.002283
-0.002278
-0.002226
-0.002249
-0.002237
-0.002258
-0.002233
-0.002195
-0.002237
-0.002196
-0.001931
-0.001923
-0.001925
-0.001964
-0.001907
-0.001918
-0.001919
-0.001960
-0.002073
-0.001873
-0.001726
-0.001759
-0.001777
-0.001684
-0.001627
-0.001696
-0.001718
-0.001586
-0.001624
-0.001356
-0.001293
-0.001347
-0.001368
-0.001351
-0.001234
-0.001326
-0.001327
-0.001314
-0.001168
-0.001154
-0.001194
-0.001183
-0.001151
-0.001184
-0.001100
-0.001098
-0.001151
-0.001117
-0.000933
-0.000798
-0.000875
-0.000874
-0.000857
-0.000852
-0.000880
-0.000818
-0.000862
-0.000782
-0.000573
-0.000576
-0.000618
-0.000543
-0.000552
-0.000588
-0.000567
-0.000606
-0.000581
-0.000422
-0.000400
-0.000412
-0.000417
-0.000404
-0.000403
-0.000409
-0.000398
-0.000424
-0.000342
-0.000173
-0.000147
-0.000150
-0.000117
-0.000160
-0.000167
-0.000171
-0.000153
-0.000186
-0.000040
0.000123
0.000135
0.000132
0.000058
0.000113
0.000099
0.000090
0.000094
0.000111
0.000174
0.000237
0.000170
0.000178
0.000203
0.000222
0.000217
0.000223
0.000168
0.000280
0.000501
0.000448
0.000516
0.000481
0.000447
0.000463
0.000485
0.000510
0.000417
0.000708
0.000891
0.000823
0.000848
0.000847
0.000908
0.000840
0.000857
0.000835
0.001006
0.001140
0.001102
0.001114
0.001060
0.001120
0.001058
0.001134
0.001106
0.001076
0.001223
0.001167
0.001148
0.001217
0.001236
0.001248
0.001182
0.001204
0.001210
0.001211
0.001300
0.001282
0.001335
0.001342
0.001308
0.001316
0.001304
0.001322
0.001269
0.001418
0.001424
0.001425
0.001407
0.001404
0.001422
0.001392
0.001428
0.001293
0.001400
0.001381
0.001378
0.001375
0.001389
0.001387
0.001386
0.001403
0.001377
0.001362
0.001339
0.001392
0.001350
0.001391
0.001365
0.001374
0.001383
0.001392
0.001355
0.001340
0.001346
0.001312
0.001371
0.001341
0.001341
0.001328
0.001328
0.001341
0.001337
0.001384
0.001482
0.001413
0.001443
0.001403
0.001438
0.001465
0.001424
0.001407
0.001404
0.001393
0.001372
0.001432
0.001438
0.001383
0.001434
0.001406
0.001382
0.001408
0.001435
0.001418
0.001416
0.001389
0.001419
0.001395
0.001379
0.001365
0.001361
0.001386
0.001409
0.001384
0.001320
0.001398
0.001366
0.001400
0.001341
0.001307
0.001322
0.001310
0.001295
0.001272
0.001243
0.001268
0.001241
0.001249
0.001237
0.001264
0.001247
0.001229
0.001186
0.001186
0.001188
0.001159
0.001229
0.001197
0.001174
0.001184
0.001202
0.001159
0.001078
0.001062
0.001082
0.001082
0.001033
0.001036
0.001075
0.001087
0.001075
0.001035
0.001027
0.001048
0.001035
0.000981
0.001052
0.001019
0.000985
0.001058
0.000995
0.000900
0.000922
0.000880
0.000934
0.000919
0.000853
0.000860
0.000842
0.000910
0.000822
0.000763
0.000777
0.000759
0.000752
0.000772
0.000736
0.000741
0.000775
0.000725
0.000688
0.000677
0.000637
0.000639
0.000637
0.000587
0.000664
0.000613
0.000610
0.000557
0.000438
0.000507
0.000468
0.000526
0.000571
0.000531
0.000521
0.000517
0.000489
0.000199
0.000097
0.000148
0.000157
0.000156
0.000160
0.000162
0.000087
0.000137
0.000009
-0.000151
-0.000065
-0.000145
-0.000117
-0.000119
-0.000135
-0.000087
-0.000062
-0.000105
-0.000136
-0.000212
-0.000193
-0.000223
-0.000222
-0.000218
-0.000219
-0.000226
-0.000179
-0.000243
-0.000391
-0.000415
-0.000426
-0.000435
-0.000426
-0.000460
-0.000431
-0.000432
-0.000409
-0.000503
-0.000670
-0.000668
-0.000634
-0.000660
-0.000688
-0.000620
-0.000624
-0.000599
-0.000640
-0.000720
-0.000734
-0.000741
-0.000779
-0.000796
-0.000775
-0.000724
-0.000750
-0.000739
-0.000833
-0.001012
-0.000959
-0.000945
-0.000960
-0.000969
-0.000973
-0.000956
-0.000942
-0.000950
-0.001138
-0.001176
-0.001162
-0.001178
-0.001162
-0.001167
-0.001154
-0.001204
-0.001108
-0.001158
-0.001421
-0.001336
-0.001346
-0.001389
-0.001370
-0.001381
-0.001360
-0.001348
-0.001316
-0.001464
-0.001612
-0.001509
-0.001543
-0.001537
-0.001543
-0.001564
-0.001609
-0.001562
-0.001521
-0.001783
-0.001739
-0.001727
-0.001759
-0.001778
-0.001749
-0.001715
-0.001732
-0.001706
-0.001677
-0.001685
-0.001643
-0.001706
-0.001634
-0.001699
-0.001674
-0.001657
-0.001655
-0.001632
-0.001779
-0.001826
-0.001816
-0.001752
-0.001760
-0.001752
-0.001697
-0.001715
-0.001708
-0.001683
-0.001712
-0.001685
-0.001703
-0.001691
-0.001698
-0.001670
-0.001655
-0.001663
-0.001614
-0.001629
-0.001684
-0.001625
-0.001603
-0.001616
-0.001611
-0.001587
-0.001577
-0.001569
-0.001548
-0.001556
-0.001593
-0.001547
-0.001556
-0.001531
-0.001502
-0.001505
-0.001528
-0.001536
-0.001503
-0.001483
-0.001506
-0.001558
-0.001467
-0.001501
-0.001489
-0.001457
-0.001457
-0.001454
-0.001554
-0.001583
-0.001609
-0.001635
-0.001599
-0.001578
-0.001529
-0.001564
-0.001517
-0.001530
-0.001543
-0.001496
-0.001538
-0.001513
-0.001530
-0.001515
-0.001502
-0.001507
-0.001498
-0.001483
-0.001437
-0.001401
-0.001421
-0.001334
-0.001413
-0.001468
-0.001445
-0.001456
-0.001396
-0.001377
-0.001439
-0.001404
-0.001384
-0.001403
-0.001273
-0.001325
-0.001300
-0.001289
-0.001323
-0.001289
-0.001323
-0.001359
-0.001427
-0.001397
-0.001357
-0.001374
-0.001339
-0.001344
-0.001325
-0.001330
-0.001306
-0.001291
-0.001296
-0.001275
-0.001316
-0.001283
-0.001319
-0.001276
-0.001277
-0.001324
-0.001216
-0.001261
-0.001234
-0.001238
-0.001254
-0.001215
-0.001298
-0.001192
-0.001208
-0.001163
-0.001174
-0.001277
-0.001204
-0.001203
-0.001198
-0.001200
-0.001129
-0.001102
-0.001164
-0.001133
-0.001123
-0.001101
-0.001139
-0.001142
-0.001142
-0.001126
-0.001117
-0.001114
-0.001141
-0.001128
-0.001166
-0.001158
-0.001043
-0.001109
-0.001098
-0.001057
-0.001046
-0.001040
-0.001055
-0.001051
-0.001019
-0.001013
-0.001028
-0.001022
-0.000993
-0.000984
-0.001011
-0.000975
-0.000962
-0.001000
-0.000971
-0.000982
-0.001016
-0.000981
-0.000966
-0.000963
-0.001001
-0.000958
-0.000980
-0.000989
-0.000958
-0.000976
-0.000994
-0.000911
-0.000904
-0.001035
-0.000981
-0.001013
-0.000890
-0.000940
-0.001017
-0.001015
-0.000942
-0.000917
-0.001388
-0.001477
-0.001515
-0.001022
-0.000835
-0.000901
-0.000841
-0.000879
-0.000847
-0.000822
-0.000852
-0.000800
-0.000788
-0.000833
-0.000836
-0.000814
-0.000784
-0.000830
-0.000780
-0.000785
-0.000837
-0.000783
-0.000789
-0.000801
-0.000778
-0.000796
-0.000776
-0.000751
-0.000713
-0.000685
-0.000743
-0.000725
-0.000740
-0.000736
-0.000724
-0.000737
-0.000743
-0.000753
-0.000698
-0.000713
-0.000706
-0.000656
-0.000731
-0.000735
-0.000674
-0.000683
-0.000651
-0.000675
-0.000675
-0.000680
-0.000710
-0.000666
-0.000674
-0.000676
-0.000591
-0.000639
-0.000619
-0.000639
-0.000621
-0.000622
-0.000618
-0.000574
-0.000647
-0.000615
-0.000647
-0.000628
-0.000651
-0.000660
-0.000635
-0.000641
-0.000648
-0.000592
-0.000593
-0.000587
-0.000569
-0.000584
-0.000585
-0.000557
-0.000566
-0.000578
-0.000560
-0.000562
-0.000597
-0.000539
-0.000522
-0.000552
-0.000490
-0.000503
-0.000452
-0.000528
-0.000491
-0.000478
-0.000523
-0.000500
-0.000531
-0.000480
-0.000477
-0.000523
-0.000532
-0.000520
-0.000510
-0.000547
-0.000495
-0.000495
-0.000523
-0.000534
-0.000487
-0.000486
-0.000491
-0.000466
-0.000486
-0.000462
-0.000483
-0.000507
-0.000487
-0.000436
-0.000452
-0.000456
-0.000432
-0.000447
-0.000443
-0.000462
-0.000418
-0.000363
-0.000374
-0.000365
-0.000373
-0.000370
-0.000376
-0.000391
-0.000371
-0.000353
-0.000386
-0.000389
-0.000345
-0.000383
-0.000408
-0.000408
-0.000440
-0.000441
-0.000502
-0.000569
-0.000588
-0.000694
-0.000650
-0.000634
-0.000820
-0.001033
-0.001038
-0.001099
-0.001125
-0.001095
-0.001143
-0.001149
-0.000895
-0.000962
-0.001302
-0.001343
-0.001253
-0.001214
-0.001187
-0.001088
-0.001180
-0.000908
-0.000508
-0.000640
-0.000702
-0.000434
-0.000162
0.000068
0.000233
0.000489
0.000584
0.000890
0.001081
0.001098
0.001167
0.001261
0.001467
0.001518
0.001704
0.002008
0.001949
0.001849
0.001990
0.002084
0.002122
0.002113
0.002288
0.002418
0.002653
0.002953
0.002409
0.002112
0.002501
0.002791
0.002656
0.002595
0.002928
0.002930
0.003060
0.002411
0.000478
0.000021
0.000398
0.000347
0.000152
0.000161
0.000373
0.000123
0.000230
-0.001236
-0.003165
-0.002823
-0.002460
-0.002337
-0.002221
-0.001977
-0.002016
-0.002169
-0.002417
-0.004325
-0.005153
-0.004746
-0.004845
-0.004597
-0.004594
-0.004596
-0.004674
-0.004795
-0.005316
-0.006344
-0.006680
-0.006982
-0.007255
-0.007246
-0.007612
-0.007670
-0.007413
-0.007329
-0.004460
-0.002904
-0.003188
-0.003101
-0.003407
-0.003521
-0.004132
-0.004011
-0.004574
-0.003405
0.000428
0.001148
0.001023
0.000914
0.000562
0.000468
0.000028
0.000248
-0.000372
0.002991
0.006717
0.006327
0.006575
0.006211
0.006223
0.005964
0.006044
0.005785
0.006015
0.011016
0.012795
0.012319
0.012689
0.012176
0.012483
0.012138
0.012617
0.011591
0.014008
0.018851
0.018260
0.018252
0.017987
0.017901
0.017936
0.017795
0.017979
0.017285
0.022198
0.024949
0.023906
0.024185
0.023395
0.023813
0.023188
0.023606
0.022749
0.024077
0.030084
0.030296
0.030055
0.029944
0.029580
0.029863
0.029237
0.029619
0.028203
0.032614
0.036757
0.035520
0.035873
0.035088
0.035411
0.034918
0.034995
0.034390
0.034551
0.040764
0.042007
0.041338
0.041610
0.041043
0.041503
0.040858
0.041518
0.040277
0.043762
0.049098
0.048320
0.048736
0.048387
0.048563
0.048380
0.048314
0.048400
0.047930
0.053851
0.056464
0.055609
0.056198
0.055603
0.056123
0.055438
0.056149
0.055300
0.057608
0.063993
0.063858
0.063970
0.063844
0.063977
0.064287
0.063881
0.064406
0.063304
0.068664
0.072530
0.071646
0.072485
0.072173
0.072821
0.072341
0.073121
0.072729
0.074013
0.081154
0.082240
0.082017
0.082453
0.082059
0.082216
0.081914
0.082849
0.081459
0.085690
0.090801
0.089607
0.089982
0.089522
0.089672
0.089458
0.089517
0.089383
0.089320
0.095893
0.098035
0.097044
0.097591
0.096895
0.097247
0.096402
0.096712
0.095517
0.098138
0.104112
0.103199
0.102845
0.102557
0.101935
0.101707
0.101388
0.101333
0.100348
0.105297
0.108371
0.107134
0.107423
0.106686
0.106239
0.105753
0.106109
0.105711
0.106992
0.110698
0.111279
0.111338
0.111361
0.111100
0.110626
0.110364
0.109582
0.109236
0.105754
0.101452
0.101247
0.100449
0.100212
0.099930
0.099987
0.099586
0.099640
0.098756
0.091378
0.088880
0.089622
0.088615
0.088620
0.087958
0.088104
0.087150
0.088297
0.084305
0.077289
0.077818
0.077360
0.077336
0.077246
0.076973
0.076834
0.076462
0.076981
0.070246
0.066343
0.067385
0.066532
0.067038
0.066207
0.066324
0.065454
0.065952
0.063953
0.056367
0.055807
0.055876
0.055209
0.055417
0.054986
0.055348
0.054492
0.055543
0.049860
0.044459
0.045723
0.044823
0.045108
0.044651
0.044777
0.044141
0.044354
0.043547
0.035901
0.034255
0.034958
0.034428
0.034958
0.034208
0.034649
0.033848
0.035181
0.030919
0.024522
0.025208
0.024592
0.025022
0.024548
0.024592
0.024752
0.024619
0.025121
0.018207
0.015402
0.016443
0.015842
0.016478
0.015626
0.016341
0.015377
0.016388
0.013695
0.006259
0.006403
0.006203
0.006321
0.006603
0.006323
0.006735
0.006137
0.007142
0.000945
-0.003501
-0.002187
-0.003004
-0.002322
-0.002947
-0.002536
-0.002864
-0.002220
-0.003412
-0.010911
-0.011749
-0.011214
-0.011733
-0.011300
-0.011657
-0.011159
-0.011916
-0.010371
-0.015191
-0.021263
-0.020076
-0.020594
-0.020072
-0.020187
-0.019955
-0.020144
-0.020023
-0.019828
-0.027166
-0.029418
-0.028418
-0.028998
-0.028261
-0.029031
-0.028118
-0.028605
-0.027311
-0.030614
-0.037317
-0.036638
-0.037149
-0.036691
-0.036878
-0.036730
-0.036127
-0.036317
-0.035435
-0.042601
-0.045800
-0.044460
-0.045153
-0.044571
-0.045093
-0.044054
-0.044860
-0.043591
-0.046162
-0.054242
-0.054192
-0.053747
-0.053872
-0.053531
-0.053387
-0.053013
-0.053512
-0.052734
-0.057922
-0.061882
-0.061095
-0.061500
-0.061191
-0.061330
-0.060959
-0.060708
-0.060216
-0.059698
-0.059334
-0.058795
-0.058406
-0.058157
-0.058070
-0.058031
-0.057852
-0.057652
-0.057734
-0.056152
-0.054400
-0.054387
-0.054079
-0.054103
-0.053893
-0.053617
-0.053382
-0.053222
-0.052999
-0.050750
-0.049867
-0.049872
-0.049686
-0.050027
-0.049653
-0.049765
-0.049367
-0.049617
-0.048782
-0.046703
-0.046705
-0.046456
-0.046493
-0.046272
-0.046002
-0.045750
-0.045545
-0.045877
-0.043835
-0.042421
-0.042754
-0.042279
-0.042329
-0.042091
-0.042170
-0.041995
-0.042180
-0.041830
-0.039427
-0.039135
-0.039250
-0.038963
-0.039085
-0.038748
-0.038821
-0.038583
-0.038641
-0.037253
-0.035428
-0.035684
-0.035525
-0.035516
-0.035403
-0.035242
-0.035246
-0.035082
-0.034846
-0.033106
-0.032368
-0.032486
-0.032212
-0.032107
-0.031959
-0.032115
-0.032039
-0.032224
-0.031818
-0.031501
-0.031722
-0.031499
-0.031480
-0.031196
-0.031092
-0.030955
-0.030783
-0.030721
-0.030329
-0.030491
-0.030243
-0.030125
-0.030174
-0.029873
-0.029921
