0.000000
0.000000
0.000000
0.000000
0.000000
0.000000
0.000000
0.000000
0.000000
0.000000
0.000000
0.000000
0.000000
0.000000
0.000000
0.000000
0.000000
0.000000
0.000000
0.000000
0.000000
0.000000
0.000000
0.000000
0.000000
0.000000
0.000000
0.000000
0.000000
0.000000
0.000000
0.000000
0.000000
0.000000
0.000000
0.000000
0.000000
0.000000
0.000000
0.000000
0.000000
0.000000
0.000000
0.000000
0.000000
0.000000
0.000000
0.000000
0.000000
0.000000
0.000000
0.000000
0.000000
0.000000
0.000000
0.000000
0.000000
0.000000
0.000000
0.000000
0.000000
0.000000
0.000000
0.000000
0.000000
0.000000
0.000000
0.000000
0.000000
0.000000
0.000000
0.000000
0.000000
0.000000
0.000000
0.000000
0.000000
0.000000
0.000000
0.000000
0.000000
0.000000
0.000000
0.000000
0.000000
0.000000
0.000000
0.000000
0.000000
0.000000
0.000000
0.000000
0.000000
0.000000
0.000000
0.000000
0.000000
0.000000
0.000000
0.000000
0.000000
0.000000
0.000000
0.000000
0.000000
0.000000
0.000000
0.000000
0.000000
0.000000
0.000000
0.000000
0.000000
0.000000
0.000000
0.000000
0.000000
0.000000
0.000000
0.000000
0.000000
0.000000
0.000000
0.000000
0.000000
0.000000
0.000000
0.000000
0.000000
0.000000
0.000000
0.000000
0.000000
0.000000
0.000000
0.000000
0.000000
0.000000
0.000000
0.000000
0.000000
0.000000
0.000000
0.000000
0.000000
0.000000
0.000000
0.000000
0.000000
0.000000
0.000000
0.000000
0.000000
0.000000
0.000000
0.000000
0.000000
0.000000
0.000000
0.000000
0.000000
0.000000
0.000000
0.000000
0.000000
0.000000
0.000000
0.000000
0.000000
0.000000
0.000000
0.000000
0.000000
0.000000
0.000000
0.000000
0.000000
0.000000
0.000000
0.000000
0.000000
0.000000
0.000000
0.000000
0.000000
0.000000
0.000000
0.000000
0.000000
0.000000
0.000000
0.000000
0.000000
0.000000
0.000000
0.000000
0.000000
0.000000
0.000000
0.000000
0.000000
0.000000
0.000000
0.000000
0.000000
0.000000
0.000000
0.000000
0.000000
0.000000
0.000000
0.000000
0.000000
0.000000
0.000000
0.000000
0.000000
0.000000
0.000000
0.000000
0.000000
0.000000
0.000000
0.000000
0.000000
0.000000
0.000000
0.000000
0.000000
0.000000
0.000000
0.000000
0.000000
0.000000
0.000000
0.000000
0.000000
0.000000
0.000000
0.000000
0.000000
0.000000
0.000000
0.000000
0.000000
0.000000
-0.000000
0.000000
-0.000000
0.000000
-0.000000
0.000000
-0.000000
0.000000
-0.000001
0.000001
-0.000001
0.000001
-0.000002
0.000002
-0.000004
0.000018
0.000080
0.000098
0.000124
0.000146
0.000161
0.000183
0.000204
0.000229
0.000249
0.000272
0.000294
0.000308
0.000331
0.000354
0.000371
0.000400
0.000424
0.000437
0.000464
0.000486
0.000497
0.000525
0.000540
0.000565
0.000579
0.000599
0.000618
0.000632
0.000669
0.000684
0.000713
0.000726
0.000745
0.000773
0.000791
0.000810
0.000811
0.000822
0.000848
0.000858
0.000869
0.000890
0.000905
0.000950
0.000957
0.000976
0.000991
0.001005
0.001030
0.001055
0.001050
0.001083
0.001132
0.001107
0.001147
0.001160
0.001176
0.001196
0.001193
0.001252
0.001270
0.001258
0.001277
0.001251
0.001298
0.001314
0.001348
0.001377
0.001376
0.001351
0.001322
0.001344
0.001332
0.001350
0.001380
0.001404
0.001434
0.001411
0.001431
0.001456
0.001473
0.001507
0.001522
0.001506
0.001465
0.001432
0.001404
0.001401
0.001391
0.001415
0.001385
0.001389
0.001381
0.001378
0.001415
0.001395
0.001375
0.001376
0.001369
0.001373
0.001389
0.001343
0.001261
0.001309
0.001289
0.001273
0.001235
0.001276
0.001271
0.001250
0.001290
0.001289
0.001299
0.001240
0.001276
0.001291
0.001285
0.001238
0.001200
0.001165
0.001120
0.001179
0.001168
0.001152
0.001174
0.001135
0.001188
0.001163
0.001146
0.001139
0.001113
0.001154
0.001108
0.001148
0.001023
0.000840
0.000822
0.000833
0.000865
0.000817
0.000792
0.000897
0.000785
0.000813
0.000851
0.000799
0.000829
0.000813
0.000861
0.000845
0.000819
0.000661
0.000608
0.000603
0.000633
0.000622
0.000613
0.000620
0.000619
0.000592
0.000578
0.000589
0.000560
0.000578
0.000595
0.000574
0.000676
0.000558
0.000505
0.000578
0.000505
0.000529
0.000467
0.000470
0.000522
0.000471
0.000490
0.000500
0.000456
0.000495
0.000467
0.000515
0.000507
0.000466
0.000347
0.000321
0.000335
0.000328
0.000338
0.000350
0.000292
0.000306
0.000309
0.000295
0.000364
0.000278
0.000286
0.000342
0.000267
0.000373
0.000170
0.000065
0.000169
0.000058
0.000111
0.000121
0.000073
0.000100
0.000072
0.000151
0.000060
0.000093
0.000143
0.000047
0.000103
0.000068
0.000043
-0.000033
-0.000007
0.000061
-0.000023
-0.000048
-0.000028
-0.000033
0.000018
-0.000007
-0.000021
0.000006
-0.000003
0.000054
-0.000029
-0.000044
0.000007
-0.000208
-0.000161
-0.000237
-0.000229
-0.000158
-0.000237
-0.000121
-0.000188
-0.000262
-0.000175
-0.000262
-0.000177
-0.000190
-0.000265
-0.000232
-0.000177
-0.000307
-0.000434
-0.000428
-0.000401
-0.000407
-0.000371
-0.000405
-0.000357
-0.000303
-0.000386
-0.000209
-0.000235
-0.000294
-0.000190
-0.000266
-0.000177
-0.000307
-0.000623
-0.000500
-0.000546
-0.000600
-0.000555
-0.000595
-0.000501
-0.000514
-0.000569
-0.000498
-0.000515
-0.000488
-0.000492
-0.000454
-0.000471
-0.000485
-0.000615
-0.000736
-0.000613
-0.000687
-0.000731
-0.000653
-0.000716
-0.000673
-0.000701
-0.000777
-0.000703
-0.000707
-0.000722
-0.000653
-0.000811
-0.000685
-0.000797
-0.000938
-0.000870
-0.000963
-0.000862
-0.000867
-0.000830
-0.000849
-0.000867
-0.000843
-0.000837
-0.000844
-0.000863
-0.000920
-0.000861
-0.000855
-0.000828
-0.000850
-0.000874
-0.000785
-0.000793
-0.000801
-0.000734
-0.000842
-0.000819
-0.000790
-0.000893
-0.000798
-0.000824
-0.000846
-0.000807
-0.000793
-0.000759
-0.000880
-0.000923
-0.000910
-0.000871
-0.000828
-0.000886
-0.000816
-0.000863
-0.000871
-0.000803
-0.000893
-0.000916
-0.000865
-0.000853
-0.000777
-0.000879
-0.000909
-0.000847
-0.000854
-0.000828
-0.000837
-0.000780
-0.000780
-0.000837
-0.000821
-0.000832
-0.000818
-0.000815
-0.000840
-0.000784
-0.000849
-0.000808
-0.000789
-0.000812
-0.000776
-0.000816
-0.000778
-0.000769
-0.000817
-0.000787
-0.000802
-0.000780
-0.000744
-0.000792
-0.000727
-0.000745
-0.000754
-0.000752
-0.000793
-0.000757
-0.000795
-0.000780
-0.000739
-0.000766
-0.000712
-0.000725
-0.000737
-0.000728
-0.000757
-0.000721
-0.000768
-0.000777
-0.000700
-0.000712
-0.000717
-0.000715
-0.000694
-0.000664
-0.000723
-0.000725
-0.000713
-0.000675
-0.000663
-0.000759
-0.000747
-0.000664
-0.000674
-0.000682
-0.000745
-0.000697
-0.000693
-0.000679
-0.000723
-0.000861
-0.000784
-0.000739
-0.000766
-0.000717
-0.000755
-0.000713
-0.000723
-0.000828
-0.000754
-0.000829
-0.000723
-0.000684
-0.000782
-0.000702
-0.000764
-0.000713
-0.000701
-0.000757
-0.000712
-0.000713
-0.000733
-0.000713
-0.000695
-0.000671
-0.000694
-0.000681
-0.000711
-0.000682
-0.000598
-0.000738
-0.000739
-0.000747
-0.000722
-0.000704
-0.000768
-0.000731
-0.000733
-0.000718
-0.000716
-0.000714
-0.000718
-0.000711
-0.000725
-0.000701
-0.000742
-0.000731
-0.000682
-0.000654
-0.000659
-0.000667
-0.000661
-0.000655
-0.000636
-0.000649
-0.000616
-0.000662
-0.000618
-0.000669
-0.000659
-0.000606
-0.000645
-0.000613
-0.000594
-0.000596
-0.000596
-0.000642
-0.000602
-0.000609
-0.000610
-0.000605
-0.000638
-0.000608
-0.000606
-0.000599
-0.000571
-0.000606
-0.000556
-0.000577
-0.000623
-0.000552
-0.000589
-0.000576
-0.000553
-0.000532
-0.000572
-0.000581
-0.000575
-0.000560
-0.000535
-0.000571
-0.000507
-0.000501
-0.000536
-0.000558
-0.000557
-0.000533
-0.000464
-0.000547
-0.000539
-0.000501
-0.000536
-0.000545
-0.000584
-0.000528
-0.000509
-0.000516
-0.000485
-0.000510
-0.000557
-0.000536
-0.000495
-0.000500
-0.000549
-0.000495
-0.000488
-0.000535
-0.000505
-0.000528
-0.000496
-0.000471
-0.000467
-0.000477
-0.000492
-0.000489
-0.000496
-0.000459
-0.000457
-0.000437
-0.000419
-0.000438
-0.000501
-0.000433
-0.000481
-0.000423
-0.000455
-0.000494
-0.000432
-0.000489
-0.000431
-0.000419
-0.000431
-0.000427
-0.000429
-0.000465
-0.000418
-0.000424
-0.000480
-0.000419
-0.000383
-0.000388
-0.000435
-0.000448
-0.000420
-0.000431
-0.000400
-0.000411
-0.000391
-0.000413
-0.000411
-0.000372
-0.000400
-0.000439
-0.000419
-0.000440
-0.000472
-0.000414
-0.000401
-0.000389
-0.000428
-0.000438
-0.000385
-0.000363
-0.000396
-0.000418
-0.000413
-0.000353
-0.000360
-0.000367
-0.000408
-0.000437
-0.000391
-0.000333
-0.000363
-0.000408
-0.000404
-0.000385
-0.000363
-0.000388
-0.000355
-0.000381
-0.000321
-0.000373
-0.000339
-0.000345
-0.000396
-0.000355
-0.000381
-0.000383
-0.000388
-0.000401
-0.000437
-0.000402
-0.000347
-0.000322
-0.000363
-0.000354
-0.000363
-0.000363
-0.000289
-0.000309
-0.000289
-0.000324
-0.000299
-0.000279
-0.000333
-0.000359
-0.000334
-0.000311
-0.000344
-0.000287
-0.000322
-0.000318
-0.000290
-0.000324
-0.000289
-0.000291
-0.000310
-0.000313
-0.000348
-0.000263
-0.000313
-0.000306
-0.000318
-0.000332
-0.000286
-0.000316
-0.000286
-0.000289
-0.000267
-0.000287
-0.000310
-0.000297
-0.000365
-0.000346
-0.000283
-0.000265
-0.000295
-0.000319
-0.000316
-0.000303
-0.000296
-0.000328
-0.000311
-0.000260
-0.000301
-0.000255
-0.000268
-0.000295
-0.000303
-0.000291
-0.000280
-0.000257
-0.000279
-0.000268
-0.000250
-0.000260
-0.000291
-0.000272
-0.000229
-0.000311
-0.000261
-0.000280
-0.000236
-0.000229
-0.000246
-0.000225
-0.000300
-0.000301
-0.000259
-0.000240
-0.000221
-0.000278
-0.000313
-0.000235
-0.000185
-0.000206
-0.000231
-0.000225
-0.000226
-0.000241
-0.000192
-0.000199
-0.000239
-0.000204
-0.000260
-0.000259
-0.000120
-0.000173
-0.000198
-0.000257
-0.000249
-0.000232
-0.000155
-0.000208
-0.000303
-0.000324
-0.000205
-0.000102
-0.000141
-0.000192
-0.000352
-0.000306
-0.000199
-0.000133
-0.000210
-0.000317
-0.000242
-0.000036
-0.000054
-0.000214
-0.000289
-0.000268
-0.000193
-0.000217
-0.000199
-0.000119
-0.000043
-0.000086
-0.000173
-0.000196
-0.000201
-0.000203
-0.000292
-0.000253
-0.000146
-0.000101
-0.000198
-0.000149
0.000027
-0.000029
-0.000471
-0.000840
-0.000521
0.000047
0.000067
-0.000675
-0.000787
-0.000352
0.000313
-0.000529
-0.001388
-0.001400
-0.000486
0.000314
-0.000044
-0.000252
-0.000206
0.000066
-0.000016
-0.000221
-0.000324
-0.000178
-0.000181
-0.000134
-0.000030
0.000031
0.000025
-0.000100
-0.000207
-0.000196
-0.000185
-0.000198
-0.000237
-0.000097
0.000055
-0.000039
-0.000140
-0.000155
-0.000080
-0.000087
-0.000208
-0.000355
-0.000208
0.000043
0.000094
-0.000138
-0.000291
-0.000176
-0.000067
-0.000037
-0.000187
-0.000266
-0.000196
-0.000059
0.000042
-0.000043
-0.000156
-0.000211
-0.000078
0.000001
-0.000057
-0.000118
-0.000221
-0.000080
-0.000019
-0.000102
-0.000116
-0.000105
-0.000107
-0.000084
-0.000101
-0.000080
-0.000039
-0.000083
-0.000082
-0.000124
-0.000099
-0.000089
-0.000089
-0.000076
-0.000105
-0.000130
-0.000162
-0.000112
-0.000059
-0.000081
-0.000121
-0.000120
-0.000092
-0.000056
-0.000034
-0.000113
-0.000127
-0.000113
-0.000041
-0.000025
-0.000118
-0.000150
-0.000086
-0.000006
-0.000025
-0.000030
-0.000108
-0.000135
-0.000060
-0.000050
-0.000029
-0.000102
-0.000057
-0.000045
-0.000056
-0.000065
-0.000095
-0.000054
-0.000036
-0.000069
-0.000085
-0.000057
-0.000059
-0.000026
-0.000046
-0.000097
-0.000127
0.000011
0.000030
-0.000010
-0.000051
-0.000118
-0.000066
-0.000037
-0.000017
-0.000010
-0.000065
-0.000053
-0.000040
-0.000013
-0.000019
-0.000090
-0.000066
-0.000020
0.000016
-0.000024
-0.000020
-0.000010
-0.000021
-0.000039
-0.000013
-0.000002
-0.000022
0.000002
-0.000043
-0.000063
-0.000019
-0.000020
0.000020
0.000001
-0.000049
-0.000030
-0.000002
0.000040
0.000052
-0.000007
-0.000036
-0.000044
0.000031
0.000043
0.000027
-0.000031
-0.000059
-0.000067
-0.000006
0.000025
-0.000021
-0.000027
-0.000035
0.000003
0.000025
0.000016
0.000066
0.000024
0.000016
-0.000032
-0.000062
0.000025
-0.000003
0.000035
-0.000007
0.000004
0.000082
0.000057
0.000087
0.000082
0.000074
-0.000028
-0.000046
-0.000122
-0.000190
-0.000175
-0.000157
-0.000013
0.000136
0.000161
0.000123
0.000185
0.000234
0.000289
0.000201
0.000218
0.000171
0.000030
-0.000148
-0.000136
-0.000145
-0.000163
-0.000041
0.000021
0.000195
0.000295
0.000263
0.000134
0.000188
0.000114
0.000144
0.000037
-0.000015
0.000019
-0.000113
-0.000234
-0.000136
0.000160
0.000236
0.000155
-0.000572
-0.001032
-0.000920
-0.000928
-0.000693
-0.000638
-0.000469
-0.000416
-0.000523
-0.000400
-0.000262
-0.000399
-0.000224
0.000201
0.000329
0.000359
-0.000262
-0.001288
-0.001408
-0.001146
-0.000928
-0.000832
-0.000766
-0.000773
-0.000655
-0.000439
-0.000244
-0.000171
-0.000230
-0.000008
0.000187
0.000212
0.000068
-0.000976
-0.001768
-0.001732
-0.001607
-0.001654
-0.001655
-0.001707
-0.001592
-0.001430
-0.001443
-0.001390
-0.001431
-0.001492
-0.001415
-0.001501
-0.001623
-0.001986
-0.002613
-0.003057
-0.003130
-0.003342
-0.003597
-0.003709
-0.003917
-0.003838
-0.004182
-0.004503
-0.004576
-0.004791
-0.005028
-0.005149
-0.005278
-0.004755
-0.001694
-0.000907
-0.001170
-0.001343
-0.001789
-0.001987
-0.002108
-0.002107
-0.002298
-0.002668
-0.002964
-0.003082
-0.003156
-0.003527
-0.003584
-0.004050
-0.001215
0.001682
0.001433
0.001488
0.001112
0.001088
0.001034
0.000961
0.000821
0.000706
0.000636
0.000567
0.000709
0.000407
0.000530
-0.000014
0.001024
0.005658
0.006195
0.006166
0.006246
0.006011
0.006012
0.006064
0.006091
0.006083
0.006236
0.006067
0.005972
0.005996
0.005845
0.005949
0.005433
0.009654
0.012189
0.011577
0.011769
0.011298
0.011332
0.011162
0.011169
0.011088
0.011023
0.010932
0.010738
0.010865
0.010613
0.011062
0.010299
0.012457
0.017132
0.016767
0.016791
0.016589
0.016527
0.016513
0.016508
0.016591
0.016501
0.016541
0.016327
0.016272
0.016146
0.016185
0.016208
0.016437
0.021278
0.022753
0.022292
0.022494
0.022269
0.022423
0.022387
0.022432
0.022618
0.022635
0.022560
0.022447
0.022592
0.022413
0.023041
0.022416
0.026002
0.029839
0.029142
0.029485
0.029374
0.029642
0.029519
0.029595
0.029614
0.029772
0.029783
0.029759
0.029945
0.029802
0.030193
0.029766
0.031078
0.036368
0.036781
0.036722
0.036930
0.036938
0.037002
0.036911
0.036930
0.037036
0.037232
0.037263
0.037326
0.037323
0.037431
0.037651
0.037250
0.042095
0.044850
0.044171
0.044560
0.044339
0.044394
0.044188
0.044165
0.044153
0.044065
0.043991
0.043713
0.043598
0.043322
0.043582
0.042630
0.044787
0.049354
0.048811
0.048853
0.048674
0.048380
0.048143
0.047818
0.047711
0.047778
0.047809
0.047495
0.047288
0.047091
0.047187
0.046999
0.046927
0.051888
0.053150
0.052665
0.052977
0.052651
0.052590
0.052235
0.052044
0.052079
0.052108
0.051891
0.051647
0.051685
0.051414
0.051974
0.051100
0.054513
0.058383
0.057601
0.057933
0.057664
0.057598
0.057188
0.056953
0.056844
0.056797
0.056658
0.056337
0.056565
0.056144
0.056360
0.055860
0.056650
0.061756
0.062039
0.061691
0.061652
0.061455
0.061230
0.060972
0.060930
0.060760
0.060742
0.060274
0.060341
0.060352
0.059967
0.060251
0.059479
0.063957
0.066724
0.065976
0.066193
0.065804
0.065802
0.065354
0.065324
0.065132
0.064989
0.064711
0.064350
0.064482
0.063822
0.064098
0.063169
0.065016
0.069853
0.069405
0.069295
0.068957
0.068859
0.068532
0.068169
0.068041
0.067799
0.067664
0.067324
0.067302
0.067047
0.066927
0.066810
0.066334
0.071494
0.073136
0.072410
0.072586
0.072312
0.072324
0.071772
0.071599
0.071494
0.071385
0.071185
0.070700
0.070616
0.070184
0.070455
0.069470
0.072614
0.076574
0.075545
0.075724
0.075355
0.075151
0.074823
0.074581
0.074380
0.074154
0.074178
0.073802
0.073488
0.073396
0.073150
0.072750
0.073747
0.078607
0.079091
0.078244
0.078357
0.077996
0.077668
0.077649
0.077562
0.076854
0.076780
0.076833
0.076315
0.076317
0.076042
0.076016
0.076157
0.079197
0.081525
0.081269
0.081395
0.081291
0.080930
0.080707
0.080663
0.079942
0.079795
0.079801
0.079573
0.079380
0.079130
0.078334
0.078052
0.075565
0.071329
0.070578
0.070020
0.069820
0.069587
0.069351
0.068986
0.068661
0.068540
0.068384
0.068039
0.067843
0.067514
0.066986
0.066955
0.066804
0.060890
0.058309
0.058765
0.058322
0.058117
0.057946
0.057841
0.057486
0.057470
0.057248
0.056896
0.056819
0.056478
0.056528
0.055841
0.056649
0.052724
0.047483
0.048230
0.047700
0.047558
0.047309
0.047278
0.047125
0.046854
0.046543
0.046200
0.046385
0.046135
0.046159
0.045743
0.045720
0.045005
0.038426
0.037450
0.037754
0.037091
0.037216
0.037001
0.037050
0.036783
0.036688
0.036284
0.035994
0.036060
0.035834
0.035945
0.035266
0.036063
0.030915
0.027007
0.028039
0.027205
0.027623
0.027359
0.027368
0.027301
0.027140
0.027274
0.026827
0.026725
0.026418
0.026634
0.026075
0.026694
0.024562
0.018510
0.018685
0.018275
0.018080
0.018170
0.017739
0.017868
0.017692
0.017810
0.017594
0.017395
0.017285
0.017285
0.017307
0.016942
0.016964
0.011006
0.008895
0.009508
0.008697
0.009257
0.008858
0.009044
0.008995
0.008776
0.008870
0.008607
0.008686
0.008523
0.008809
0.008117
0.008763
0.005194
0.000322
0.001037
0.000379
0.000469
0.000337
0.000371
0.000605
0.000370
0.000386
0.000344
0.000243
0.000193
0.000312
0.000025
0.000270
-0.000402
-0.006278
-0.007095
-0.006910
-0.007194
-0.006865
-0.007085
-0.006839
-0.006916
-0.007083
-0.007108
-0.007117
-0.007050
-0.007234
-0.007270
-0.007632
-0.006873
-0.011715
-0.015409
-0.014655
-0.015245
-0.014624
-0.014799
-0.014647
-0.014819
-0.014924
-0.014885
-0.014969
-0.014638
-0.014859
-0.014678
-0.015201
-0.014528
-0.016610
-0.022546
-0.022453
-0.022626
-0.022461
-0.022347
-0.022523
-0.022361
-0.022399
-0.022282
-0.022304
-0.022318
-0.022352
-0.022256
-0.022259
-0.022444
-0.022102
-0.027847
-0.030275
-0.029468
-0.029696
-0.029187
-0.029542
-0.029498
-0.029425
-0.029371
-0.029204
-0.029174
-0.029013
-0.029260
-0.028829
-0.029341
-0.028564
-0.031922
-0.036870
-0.036269
-0.036724
-0.036285
-0.036347
-0.036204
-0.035962
-0.035907
-0.035800
-0.035655
-0.035508
-0.035775
-0.035738
-0.035834
-0.035312
-0.036072
-0.042143
-0.042990
-0.042657
-0.042701
-0.042547
-0.042846
-0.042661
-0.042447
-0.042328
-0.042195
-0.042368
-0.042200
-0.042219
-0.041863
-0.042126
-0.041159
-0.046302
-0.049898
-0.048829
-0.049319
-0.048714
-0.049002
-0.048379
-0.048405
-0.048438
-0.048758
-0.048822
-0.048407
-0.048201
-0.047716
-0.048461
-0.047527
-0.050533
-0.056868
-0.056192
-0.055686
-0.055077
-0.056314
-0.056302
-0.056214
-0.055352
-0.056883
-0.058079
-0.057727
-0.055876
-0.053616
-0.053721
-0.053587
-0.053892
-0.059982
-0.062252
-0.061463
-0.061488
-0.061271
-0.061305
-0.061146
-0.060711
-0.060419
-0.060799
-0.060639
-0.060482
-0.060187
-0.059907
-0.060222
-0.059581
-0.063284
-0.067908
-0.067631
-0.067752
-0.067300
-0.067313
-0.067217
-0.067153
-0.066309
-0.066618
-0.066586
-0.066202
-0.065957
-0.065716
-0.066124
-0.065466
-0.064666
-0.064102
-0.063260
-0.062717
-0.062598
-0.062226
-0.062007
-0.062507
-0.062355
-0.062464
-0.062495
-0.062126
-0.061966
-0.061489
-0.061480
-0.061129
-0.060961
-0.059702
-0.058734
-0.058464
-0.058302
-0.058275
-0.057991
-0.058193
-0.057826
-0.057652
-0.057509
-0.057311
-0.057281
-0.057108
-0.057126
-0.056951
-0.056960
-0.056176
-0.054437
-0.054275
-0.054172
-0.054181
-0.053870
-0.053863
-0.053724
-0.053445
-0.053395
-0.053153
-0.053125
-0.053198
-0.052941
-0.052907
-0.052681
-0.052595
-0.050765
-0.050113
-0.050143
-0.050002
-0.049968
-0.049799
-0.049867
-0.049489
-0.049441
-0.049255
-0.049033
-0.049069
-0.048775
-0.048772
-0.048448
-0.048510
-0.047231
-0.045931
-0.045978
-0.045653
-0.045638
-0.045296
-0.045462
-0.045223
-0.045087
-0.045144
-0.044971
-0.045023
-0.044820
-0.044789
-0.044592
-0.044564
-0.043942
-0.042227
-0.042037
-0.041927
-0.041956
-0.041818
-0.041778
-0.041606
-0.041250
-0.041163
-0.041232
-0.041150
-0.041114
-0.040982
-0.040844
-0.040728
-0.040591
-0.039085
-0.038239
-0.038273
-0.038174
-0.038094
-0.037857
-0.037776
-0.037745
-0.037614
-0.037538
-0.037566
-0.037412
-0.037326
-0.037132
-0.036828
-0.036843
-0.036179
-0.034896
-0.034610
-0.034583
-0.034413
-0.034357
-0.034225
-0.034123
-0.034213
-0.034097
-0.034118
-0.034050
-0.033875
-0.033960
-0.033911
-0.033862
-0.033843
-0.033476
-0.033220
-0.033282
-0.033298
-0.033280
-0.033278
-0.032980
-0.033013
-0.032893
-0.032810
-0.032857
-0.032614
-0.032488
-0.032486
-0.032300
-0.032167
-0.032064
-0.031895
-0.031856
-0.031834
-0.031689
-0.031711
-0.031601
-0.031494
-0.031536
-0.031415
-0.031456
-0.031430
-0.031207
-0.031277
-0.031213
-0.031002
-0.030731
-0.030701
-0.030600
-0.030491
-0.030409
-0.030336
-0.030414
-0.030342
-0.030262
-0.030120
-0.030034
-0.030145
-0.029946
-0.029897
-0.029908
-0.029833
-0.029666
-0.029394
-0.029507
-0.029451
-0.029351
-0.029223
-0.029099
-0.029140
-0.029016
-0.029008
-0.028729
-0.028821
-0.028828
-0.028658
-0.028605
-0.028623
-0.028535
-0.028297
-0.028256
-0.028282
-0.028199
-0.028254
-0.028060
-0.028048
-0.028041
-0.027992
-0.027888
-0.027750
-0.027875
-0.027753
-0.027505
-0.027588
-0.027567
-0.027430
-0.027330
-0.027338
-0.027048
-0.027060
-0.027033
-0.026924
-0.026897
-0.026860
-0.026822
-0.026663
-0.026687
-0.026742
-0.026537
-0.026418
-0.026402
-0.026353
-0.026290
-0.026272
-0.026102
-0.025901
-0.025979
-0.025792
-0.025780
-0.025686
-0.025677
-0.025571
-0.025502
-0.025531
-0.025398
-0.025226
-0.025203
-0.025087
-0.025058
-0.025095
-0.024988
-0.024763
-0.024742
-0.024596
-0.024494
-0.024488
-0.024484
-0.024447
-0.024418
-0.024389
-0.024329
-0.024240
-0.024205
-0.024110
-0.023951
-0.023899
-0.023892
-0.023715
-0.023789
-0.023811
-0.023708
-0.023664
-0.023587
-0.023616
-0.023531
-0.023480
-0.023426
-0.023332
-0.023296
-0.023279
-0.023153
-0.023061
-0.023045
-0.022882
-0.022812
-0.022969
-0.022866
-0.022880
-0.022824
-0.022690
-0.022594
-0.022525
-0.022448
-0.022347
-0.022393
-0.022393
-0.022386
-0.022286
-0.022194
-0.022152
-0.021920
-0.021976
-0.021984
-0.021911
-0.021836
-0.021790
-0.021655
-0.021499
-0.021448
-0.021341
-0.021331
-0.021327
-0.021312
-0.021291
-0.021195
-0.021094
-0.021038
-0.021021
-0.020963
-0.020840
-0.020744
-0.020725
-0.020601
-0.020470
-0.020447
-0.020323
-0.020329
-0.020293
-0.020255
-0.020314
-0.020244
-0.020180
-0.020164
-0.020133
-0.020138
-0.020057
-0.019944
-0.019889
-0.019812
-0.019814
-0.019792
-0.019737
-0.019657
-0.019530
-0.019394
-0.019418
-0.019483
-0.019329
-0.019178
-0.019148
-0.019166
-0.019104
-0.019026
-0.018927
-0.018834
-0.018781
-0.018803
-0.018836
-0.018733
-0.018755
-0.018486
-0.018409
-0.018509
-0.018478
-0.018387
-0.018224
-0.018218
-0.018182
-0.018067
-0.017926
-0.017873
-0.017842
-0.017848
-0.017862
-0.017751
-0.017792
-0.017734
-0.017524
-0.017562
-0.017623
-0.017605
-0.017539
-0.017496
-0.017493
-0.017511
-0.017460
-0.017326
-0.017318
-0.017338
-0.017296
-0.017092
-0.017012
-0.016976
-0.016714
-0.016704
-0.016881
-0.016892
-0.016765
-0.016768
-0.016701
-0.016734
-0.016734
-0.016548
-0.016505
-0.016510
-0.016543
-0.016451
-0.016269
-0.016332
-0.016225
-0.016175
-0.016171
-0.016296
-0.016192
-0.016109
-0.016048
-0.015905
-0.016075
-0.015863
-0.015736
-0.015747
-0.015795
-0.015697
-0.015571
-0.015572
-0.015563
-0.015574
-0.015454
-0.015543
-0.015498
-0.015394
-0.015357
-0.015175
-0.015220
-0.015220
-0.015084
-0.015020
-0.014991
-0.014995
-0.014839
-0.014816
-0.014792
-0.014723
-0.014674
-0.014647
-0.014787
-0.014624
-0.014569
-0.014394
-0.014411
-0.014536
-0.014337
-0.014332
-0.014245
-0.014306
-0.014172
-0.014067
-0.014093
-0.014137
-0.014111
-0.013986
-0.014068
-0.014022
-0.013848
-0.013745
-0.013656
-0.013705
-0.013632
-0.013554
-0.013571
-0.013591
-0.013536
-0.013405
-0.013375
-0.013389
-0.013422
-0.013343
-0.013260
-0.013296
-0.013241
-0.013033
-0.012982
-0.013105
-0.013111
-0.012972
-0.012972
-0.012986
-0.012980
-0.012782
-0.012682
-0.012664
-0.012695
-0.012689
-0.012572
-0.012613
-0.012569
-0.012534
-0.012504
-0.012524
-0.012620
-0.012486
-0.012409
-0.012422
-0.012432
-0.012334
-0.012121
-0.012112
-0.012057
-0.012070
-0.011953
-0.011965
-0.012009
-0.011831
-0.011818
-0.011841
-0.011922
-0.011871
-0.011785
-0.011698
-0.011672
-0.011663
-0.011547
-0.011630
-0.011574
-0.011550
-0.011508
-0.011509
-0.011516
-0.011478
-0.011482
-0.011474
-0.011435
-0.011475
-0.011400
-0.011330
-0.011265
-0.011167
-0.011058
-0.010951
-0.010959
-0.010891
-0.010830
-0.010710
-0.010649
-0.010583
-0.010603
-0.010612
-0.010631
-0.010641
-0.010599
-0.010463
-0.010560
-0.010542
-0.010407
-0.010421
-0.010381
-0.010351
-0.010238
-0.010209
-0.010155
-0.010055
-0.010024
-0.010050
-0.010049
-0.009943
-0.009901
-0.009653
-0.009565
-0.009721
-0.009718
-0.009659
-0.009660
-0.009595
-0.009580
-0.009557
-0.009554
-0.009510
-0.009396
-0.009346
-0.009449
-0.009462
-0.009388
-0.009371
-0.009213
-0.009226
-0.009304
-0.009254
-0.009293
-0.009218
-0.009140
-0.009127
-0.009088
-0.009147
-0.009089
-0.009019
-0.008980
-0.008938
-0.008854
-0.008813
-0.008759
-0.008610
-0.008559
-0.008478
-0.008289
-0.008277
-0.008258
-0.008180
-0.008112
-0.008072
-0.008049
-0.007975
-0.008046
-0.008035
-0.007940
-0.007869
-0.007862
-0.007840
-0.007780
-0.007684
-0.007619
-0.007589
-0.007554
-0.007616
-0.007576
-0.007525
-0.007437
-0.007461
-0.007400
-0.007467
-0.007498
-0.007446
-0.007421
-0.007352
-0.007408
-0.007289
-0.007285
-0.007254
-0.007190
-0.007220
-0.007177
-0.007115
-0.006980
-0.007050
-0.007012
-0.006967
-0.006980
-0.006915
-0.006890
-0.006842
-0.006799
-0.006686
-0.006696
-0.006712
-0.006674
-0.006617
-0.006575
-0.006564
-0.006445
-0.006418
-0.006418
-0.006415
-0.006395
-0.006343
-0.006370
-0.006353
-0.006379
-0.006340
-0.006308
-0.006332
-0.006342
-0.006345
-0.006277
-0.006244
-0.006199
-0.006190
-0.006140
-0.006124
-0.006078
-0.006011
-0.006076
-0.006030
-0.006011
-0.006015
-0.005997
-0.005989
-0.005903
-0.005892
-0.005853
-0.005824
-0.005789
-0.005739
-0.005698
-0.005608
-0.005592
-0.005575
-0.005569
-0.005498
-0.005489
-0.005543
-0.005491
-0.005399
-0.005376
-0.005327
-0.005224
-0.005164
-0.005037
-0.004986
-0.004923
-0.004639
-0.004343
-0.004349
-0.004388
-0.004261
-0.004163
-0.004196
-0.004125
-0.004041
-0.004009
-0.004020
-0.004002
-0.003797
-0.003719
-0.003661
-0.003627
-0.003421
-0.003126
-0.003102
-0.003057
-0.002964
-0.002895
-0.002875
-0.002897
-0.002890
-0.002735
-0.002717
-0.002843
-0.002678
-0.002546
-0.002404
-0.002401
-0.002286
-0.001941
-0.001782
-0.001835
-0.001731
-0.001636
-0.001573
-0.001634
-0.001685
-0.001519
-0.001483
-0.001497
-0.001525
-0.001408
-0.001418
-0.001312
-0.001165
-0.000848
-0.000699
-0.000729
-0.000613
-0.000459
-0.000358
-0.000381
-0.000242
-0.000089
-0.000015
-0.000203
-0.000259
-0.000057
0.000065
0.000068
-0.000079
0.000169
0.000571
0.000729
0.000723
0.000781
0.000801
0.000735
0.000760
0.000790
0.000908
0.000811
0.000790
0.000833
0.001076
0.001027
0.000875
0.000811
0.001045
0.001487
0.001517
0.001578
0.001522
0.001604
0.001589
0.001700
0.001363
0.001122
0.001227
0.001467
0.001780
0.001149
0.001117
0.001231
0.002024
0.001571
0.000757
0.000690
0.001576
0.002687
0.002628
0.002554
0.002407
0.002792
0.002795
0.002759
0.002678
0.002816
0.003032
0.003078
0.003161
0.003404
0.003648
0.003683
0.003701
0.003559
0.003460
0.003534
0.003694
0.003954
0.004048
0.003945
0.003891
0.003995
0.003984
0.004121
0.004094
0.004344
0.004594
0.004628
0.004689
0.004683
0.004689
0.004592
0.004705
0.004791
0.004853
0.004840
0.004824
0.005031
0.005060
0.005039
0.004904
0.004947
0.005183
0.005205
0.005159
0.005235
0.005420
0.005484
0.005451
0.005377
0.005491
0.005572
0.005616
0.005538
0.005565
0.005621
0.005592
0.005646
0.005685
0.005800
0.005786
0.005838
0.005831
0.005780
0.005769
0.005764
0.005860
0.005819
0.005890
0.005804
0.005900
0.005953
0.005984
0.005911
0.006008
0.006288
0.006316
0.006374
0.006337
0.006453
0.006555
0.006600
0.006545
0.006532
0.006591
0.006608
0.006626
0.006637
0.006701
0.006711
0.006820
0.006994
0.007030
0.007045
0.007102
0.007126
0.007144
0.007163
0.007148
0.007263
0.007257
0.007352
0.007357
0.007390
0.007435
0.007469
0.007494
0.007589
0.007779
0.007755
0.007833
0.007750
0.007797
0.007873
0.007864
0.007911
0.007910
0.007991
0.007992
0.008065
0.008046
0.008102
0.008060
0.008126
0.008332
0.008384
0.008405
0.008422
0.008497
0.008472
0.008539
0.008458
0.008480
0.008500
0.008476
0.008520
0.008492
0.008501
0.008453
0.008473
0.008533
0.008612
0.008595
0.008628
0.008579
0.008597
0.008565
0.008546
0.008636
0.008582
0.008675
0.008621
0.008640
0.008663
0.008720
0.008713
0.008768
0.008960
0.008937
0.008983
0.008985
0.009040
0.009026
0.009040
0.009050
0.009092
0.009135
0.009144
0.009104
0.009171
0.009182
0.009125
0.009225
0.009383
0.009500
0.009502
0.009476
0.009505
0.009552
0.009561
0.009613
0.009622
0.009607
0.009613
0.009632
0.009646
0.009643
0.009693
0.009689
0.009821
0.009994
0.010001
0.010009
0.010016
0.010097
0.010098
0.010166
0.010234
0.010282
0.010338
0.010371
0.010462
0.010514
0.010561
0.010618
0.010686
0.011104
0.011197
0.011158
0.011255
0.011314
0.011300
0.011334
0.011405
0.011444
0.011465
0.011474
0.011489
0.011554
0.011620
0.011660
0.011643
0.011797
0.011940
0.011907
0.011928
0.011934
0.011976
0.011973
0.011958
0.012017
0.011995
0.011970
0.012045
0.012031
0.012048
0.012062
0.012001
0.012126
0.012281
0.012269
0.012282
0.012271
0.012320
0.012361
0.012365
0.012367
0.012433
0.012521
0.012497
0.012509
0.012572
0.012525
0.012536
0.012517
0.012666
0.012786
0.012746
0.012828
0.012828
0.012891
0.012926
0.012856
0.012882
0.012984
0.013003
0.012932
0.012958
0.013006
0.012978
0.012980
0.013056
0.013262
0.013247
0.013166
0.013204
0.013260
0.013259
0.013221
0.013241
0.013280
0.013330
0.013299
0.013298
0.013283
0.013359
0.013380
0.013426
0.013634
0.013691
0.013756
0.013686
0.013710
0.013745
0.013739
0.013733
0.013787
0.013802
0.013754
0.013774
0.013772
0.013832
0.013860
0.013790
0.013896
0.014017
0.013995
0.014025
0.013994
0.013961
0.013981
0.013984
0.013988
0.013991
0.013988
0.013999
0.013954
0.013979
0.014013
0.014021
0.014097
0.014285
0.014312
0.014257
0.014256
0.014329
0.014390
0.014398
0.014448
0.014447
0.014472
0.014501
0.014534
0.014560
0.014558
0.014606
0.014536
0.014702
0.014800
0.014718
0.014696
0.014705
0.014697
0.014655
0.014683
0.014734
0.014753
0.014662
0.014694
0.014695
0.014703
0.014657
0.014629
0.014648
0.014706
0.014619
0.014599
0.014605
0.014564
0.014530
0.014472
0.014509
0.014447
0.014434
0.014407
0.014418
0.014376
0.014347
0.014349
0.014342
0.014430
0.014423
0.014415
0.014390
0.014335
0.014357
0.014374
0.014330
0.014328
0.014319
0.014347
0.014351
0.014290
0.014271
0.014241
0.014214
0.014233
0.014235
0.014227
0.014145
0.014118
0.014126
0.014074
0.014030
0.013973
0.013956
0.013889
0.013826
0.013807
0.013754
0.013700
0.013676
0.013646
0.013595
0.013584
0.013504
0.013496
0.013486
0.013421
0.013389
0.013368
0.013342
0.013313
0.013331
0.013293
0.013286
0.013244
0.013252
0.013251
0.013302
0.013303
0.013265
0.013264
0.013226
0.013203
0.013118
0.013087
0.013038
0.013031
0.013039
0.013013
0.012987
0.012990
0.012998
0.012959
0.012920
0.012905
0.012855
0.012817
0.012769
0.012683
0.012621
0.012583
0.012612
0.012572
0.012546
0.012510
0.012495
0.012488
0.012454
0.012400
0.012408
0.012465
0.012462
0.012438
0.012413
0.012403
0.012396
0.012388
0.012329
0.012337
0.012329
0.012309
0.012267
0.012243
0.012223
0.012209
0.012196
0.012168
0.012179
0.012097
0.012047
0.012057
0.011991
0.011893
0.011866
0.011874
0.011848
0.011794
0.011724
0.011728
0.011673
0.011641
0.011662
0.011602
0.011636
0.011581
0.011558
0.011600
0.011482
0.011491
0.011493
0.011442
0.011427
0.011410
0.011424
0.011360
0.011361
0.011375
0.011366
0.011299
0.011262
0.011301
0.011259
0.011344
0.011250
0.011174
0.011171
0.011125
0.011064
0.011037
0.011020
0.010954
0.010911
0.010917
0.010925
0.010866
0.010959
0.010975
0.010911
0.010951
0.010877
0.010812
0.010754
0.010703
0.010668
0.010599
0.010524
0.010520
0.010449
0.010427
0.010382
0.010304
0.010265
0.010243
0.010220
0.010154
0.010129
0.010098
0.010082
0.010087
0.010075
0.009996
0.009972
0.009957
0.009966
0.009954
0.009884
0.009829
0.009821
0.009781
0.009728
0.009800
0.009751
0.009707
0.009679
0.009632
0.009654
0.009589
0.009573
0.009567
0.009522
0.009468
0.009428
0.009374
0.009381
0.009397
0.009452
0.009405
0.009303
0.009269
0.009284
0.009257
0.009221
0.009246
0.009182
0.009152
0.009108
0.009161
0.009089
0.009063
0.009042
0.009001
0.009040
0.008967
0.008955
0.008950
0.008972
0.008984
0.008932
0.008829
0.008873
0.008859
0.008831
0.008774
0.008652
0.008642
0.008617
0.008543
0.008502
0.008511
0.008572
0.008515
0.008527
0.008504
0.008461
0.008404
0.008380
0.008344
0.008271
0.008272
0.008198
0.008149
0.008142
0.008039
0.007976
0.007949
0.007887
0.007878
0.007765
0.007766
0.007699
0.007642
0.007612
0.007551
0.007511
0.007424
0.007325
0.007265
0.007195
0.007090
0.007062
0.007120
0.007044
0.006991
0.006940
0.006884
0.006827
0.006759
0.006726
0.006702
0.006670
0.006595
0.006585
0.006544
0.006518
0.006426
0.006394
0.006304
0.006173
0.006129
0.006053
0.006035
0.006021
0.005955
0.005920
0.005877
0.005840
0.005799
0.005726
0.005696
0.005648
0.005646
0.005622
0.005568
0.005515
0.005558
0.005472
0.005384
0.005375
0.005353
0.005331
0.005281
0.005250
0.005270
0.005205
0.005174
0.005137
0.005101
0.005060
0.004999
0.004935
0.004890
0.004858
0.004858
0.004848
0.004789
0.004785
0.004757
0.004716
0.004701
0.004665
0.004646
0.004594
0.004553
0.004547
0.004531
0.004524
0.004388
0.004291
0.004245
0.004199
0.004153
0.004099
0.004050
0.004044
0.004008
0.003963
0.003916
0.003900
0.003853
0.003786
0.003783
0.003707
0.003696
0.003646
0.003638
0.003570
0.003508
0.003519
0.003475
0.003425
0.003382
0.003325
0.003302
0.003256
0.003211
0.003265
0.003129
0.003117
0.003102
0.003005
0.002975
0.002928
0.002897
0.002867
0.002834
0.002800
0.002780
0.002738
0.002756
0.002731
0.002723
0.002705
0.002702
0.002766
0.002676
0.002582
0.002550
0.002570
0.002545
0.002454
0.002486
0.002433
0.002448
0.002436
0.002382
0.002375
0.002319
0.002321
0.002311
0.002316
0.002239
0.002199
0.002116
0.002044
0.002033
0.002010
0.001956
0.001926
0.001870
0.001899
0.001888
0.001864
0.001842
0.001763
0.001734
0.001746
0.001729
0.001683
0.001658
0.001576
0.001616
0.001602
0.001589
0.001517
0.001445
0.001480
0.001448
0.001424
0.001358
0.001373
0.001379
0.001294
0.001189
0.001129
0.001194
0.001160
0.001092
0.000960
0.000930
0.000941
0.000906
0.000879
0.000783
0.000816
0.000901
0.000881
0.000729
0.000616
0.000600
0.000720
0.000761
0.000618
0.000517
0.000500
0.000551
0.000619
0.000601
0.000512
0.000449
0.000340
0.000345
0.000395
0.000428
0.000401
0.000335
0.000302
0.000352
0.000201
0.000151
0.000131
0.000220
0.000234
0.000108
0.000002
0.000008
0.000104
0.000120
-0.000109
-0.000295
-0.000209
-0.000017
0.000071
-0.000430
-0.000438
-0.000391
0.000160
-0.000449
-0.001161
-0.001276
-0.000685
0.000137
0.000002
-0.000191
-0.000448
-0.000329
-0.000246
-0.000212
-0.000391
-0.000399
-0.000413
-0.000489
-0.000530
-0.000608
-0.000537
-0.000440
-0.000519
-0.000639
-0.000708
-0.000649
-0.000628
-0.000631
-0.000701
-0.000705
-0.000711
-0.000782
-0.000741
-0.000951
-0.001056
-0.001033
-0.001000
-0.000946
-0.001022
-0.001136
-0.001261
-0.001210
-0.001056
-0.001066
-0.001210
-0.001393
-0.001391
-0.001211
-0.001068
-0.001243
-0.001510
-0.001601
-0.001588
-0.001566
-0.001493
-0.001495
-0.001492
-0.001489
-0.001540
-0.001542
-0.001636
-0.001581
-0.001601
-0.001627
-0.001593
-0.001552
-0.001722
-0.001795
-0.001812
-0.001844
-0.001821
-0.001883
-0.001841
-0.001844
-0.001870
-0.001843
-0.001865
-0.001848
-0.001858
-0.001918
-0.001943
-0.001917
-0.002027
-0.002065
-0.002023
-0.002067
-0.002102
-0.002146
-0.002097
-0.002051
-0.002124
-0.002082
-0.002048
-0.002047
-0.001984
-0.002100
-0.002184
-0.002189
-0.002280
-0.002465
-0.002504
-0.002571
-0.002621
-0.002679
-0.002645
-0.002708
-0.002779
-0.002834
-0.002877
-0.002903
-0.002977
-0.002938
-0.003009
-0.003030
-0.003073
-0.003285
-0.003415
-0.003476
-0.003472
-0.003433
-0.003489
-0.003524
-0.003520
-0.003579
-0.003642
-0.003676
-0.003736
-0.003747
-0.003785
-0.003804
-0.003830
-0.003922
-0.004088
-0.004137
-0.004192
-0.004245
-0.004278
-0.004311
-0.004297
-0.004330
-0.004396
-0.004427
-0.004444
-0.004517
-0.004546
-0.004566
-0.004614
-0.004610
-0.004806
-0.004860
-0.004877
-0.004940
-0.004929
-0.004967
-0.004961
-0.004993
-0.005021
-0.005016
-0.005013
-0.004993
-0.005072
-0.005083
-0.005183
-0.005148
-0.005294
-0.005611
-0.005505
-0.005577
-0.005525
-0.005578
-0.005576
-0.005547
-0.005570
-0.005532
-0.005545
-0.005465
-0.005515
-0.005497
-0.005503
-0.005464
-0.005516
-0.005758
-0.005805
-0.005871
-0.005885
-0.005948
-0.005986
-0.006018
-0.006059
-0.006153
-0.006172
-0.006216
-0.006278
-0.006291
-0.006320
-0.006383
-0.006371
-0.006552
-0.006657
-0.006685
-0.006764
-0.006755
-0.006801
-0.006849
-0.006939
-0.006971
-0.006996
-0.007024
-0.007081
-0.007125
-0.007140
-0.007240
-0.007243
-0.007388
-0.007607
-0.007629
-0.007721
-0.007750
-0.007833
-0.007821
-0.007972
-0.008016
-0.008035
-0.008130
-0.008167
-0.008188
-0.008236
-0.008342
-0.008414
-0.008461
-0.008602
-0.008747
-0.008803
-0.008856
-0.008887
-0.008961
-0.009012
-0.009102
-0.009166
-0.009247
-0.009291
-0.009324
-0.009366
-0.009401
-0.009492
-0.009521
-0.009724
-0.009835
-0.009843
-0.009908
-0.009922
-0.010013
-0.010036
-0.010042
-0.010010
-0.010022
-0.010042
-0.010069
-0.010032
-0.010013
-0.010056
-0.009978
-0.009993
-0.010139
-0.010114
-0.010143
-0.010166
-0.010195
-0.010260
-0.010309
-0.010373
-0.010360
-0.010415
-0.010418
-0.010435
-0.010473
-0.010482
-0.010517
-0.010502
-0.010666
-0.010754
-0.010718
-0.010740
-0.010729
-0.010757
-0.010773
-0.010842
-0.010804
-0.010858
-0.010826
-0.010866
-0.010900
-0.010918
-0.010951
-0.010967
-0.011028
-0.011188
-0.011222
-0.011219
-0.011277
-0.011262
-0.011337
-0.011352
-0.011369
-0.011381
-0.011395
-0.011408
-0.011447
-0.011444
-0.011507
-0.011534
-0.011539
-0.011688
-0.011709
-0.011717
-0.011741
-0.011769
-0.011796
-0.011884
-0.011858
-0.011921
-0.012014
-0.012034
-0.012061
-0.012143
-0.012116
-0.012171
-0.012194
-0.012288
-0.012464
-0.012536
-0.012566
-0.012591
-0.012677
-0.012658
-0.012702
-0.012740
-0.012771
-0.012811
-0.012773
-0.012742
-0.012747
-0.012810
-0.012866
-0.012880
-0.013028
-0.013030
-0.013016
-0.013016
-0.012956
-0.012940
-0.013018
-0.012983
-0.013034
-0.013066
-0.013087
-0.013121
-0.013093
-0.013081
-0.013091
-0.013111
-0.013237
-0.013305
-0.013302
-0.013337
-0.013332
-0.013319
-0.013285
-0.013272
-0.013251
-0.013259
-0.013221
-0.013270
-0.013267
-0.013299
-0.013312
-0.013275
-0.013371
-0.013550
-0.013563
-0.013554
-0.013596
-0.013602
-0.013679
-0.013646
-0.013644
-0.013695
-0.013711
-0.013798
-0.013777
-0.013790
-0.013825
-0.013857
-0.013844
-0.014013
-0.014137
-0.014134
-0.014148
-0.014180
-0.014211
-0.014196
-0.014228
-0.014256
-0.014307
-0.014256
-0.014278
-0.014308
-0.014311
-0.014367
-0.014274
-0.014455
-0.014597
-0.014567
-0.014664
-0.014641
-0.014691
-0.014692
-0.014716
-0.014720
-0.014759
-0.014803
-0.014851
-0.014862
-0.014856
-0.014917
-0.014870
-0.014909
-0.015103
-0.015065
-0.015060
-0.015079
-0.015078
-0.015059
-0.015025
-0.015003
-0.014921
-0.014941
-0.015009
-0.015028
-0.015077
-0.015087
-0.015083
-0.014978
-0.015137
-0.015246
-0.015164
-0.015239
-0.015236
-0.015218
-0.015228
-0.015197
-0.015205
-0.015193
-0.015130
-0.015143
-0.015159
-0.015180
-0.015200
-0.015189
-0.015221
-0.015375
-0.015460
-0.015424
-0.015426
-0.015455
-0.015518
-0.015496
-0.015551
-0.015551
-0.015508
-0.015562
-0.015628
-0.015639
-0.015621
-0.015664
-0.015574
-0.015819
-0.015857
-0.015820
-0.015857
-0.015821
-0.015840
-0.015809
-0.015775
-0.015782
-0.015756
-0.015725
-0.015740
-0.015668
-0.015647
-0.015591
-0.015543
-0.015507
-0.015446
-0.015411
-0.015394
-0.015360
-0.015292
-0.015277
-0.015277
-0.015241
-0.015149
-0.015114
-0.015092
-0.015065
-0.014995
-0.015000
-0.015002
-0.014947
-0.014951
-0.014884
-0.014882
-0.014870
-0.014822
-0.014807
-0.014687
-0.014643
-0.014610
-0.014527
-0.014529
-0.014461
-0.014392
-0.014352
-0.014295
-0.014335
-0.014282
-0.014207
-0.014237
-0.014156
-0.014141
-0.014088
-0.014030
-0.013966
-0.013937
-0.013896
-0.013853
-0.013789
-0.013770
-0.013728
-0.013630
-0.013620
-0.013593
-0.013570
-0.013545
-0.013485
-0.013466
-0.013477
-0.013378
-0.013336
-0.013328
-0.013284
-0.013233
-0.013191
-0.013154
-0.013139
-0.013141
-0.013065
-0.013036
-0.013012
-0.013012
-0.012916
-0.012866
-0.012801
-0.012758
-0.012725
-0.012634
-0.012591
-0.012487
-0.012478
-0.012406
-0.012393
-0.012340
-0.012269
-0.012263
-0.012158
-0.012108
-0.012059
-0.012015
-0.011950
-0.011989
-0.011906
-0.011809
-0.011808
-0.011752
-0.011722
-0.011643
-0.011604
-0.011583
-0.011501
-0.011475
-0.011482
-0.011443
-0.011431
-0.011433
-0.011376
-0.011335
-0.011303
-0.011255
-0.011241
-0.011192
-0.011183
-0.011129
-0.011105
-0.011020
-0.010952
-0.010935
-0.010797
-0.010830
-0.010784
-0.010767
-0.010780
-0.010735
-0.010763
-0.010682
-0.010667
-0.010645
-0.010575
-0.010524
-0.010534
-0.010445
-0.010381
-0.010357
-0.010288
-0.010267
-0.010230
-0.010178
-0.010154
-0.010136
-0.010031
-0.009987
-0.009980
-0.009916
-0.009846
-0.009847
-0.009804
-0.009775
-0.009755
-0.009756
-0.009718
-0.009697
-0.009654
-0.009581
-0.009590
-0.009500
-0.009489
-0.009473
-0.009373
-0.009369
-0.009337
-0.009241
-0.009236
-0.009201
-0.009136
-0.009139
-0.009068
-0.009027
-0.008940
-0.008915
-0.008905
-0.008802
-0.008709
-0.008708
-0.008659
-0.008576
-0.008546
-0.008529
-0.008445
-0.008407
-0.008395
-0.008353
-0.008359
-0.008270
-0.008254
-0.008231
-0.008227
-0.008144
-0.008152
-0.008116
-0.008078
-0.008081
-0.008075
-0.008025
-0.007993
-0.007987
-0.007933
-0.007886
-0.007857
-0.007854
-0.007801
-0.007796
-0.007684
-0.007657
-0.007598
-0.007619
-0.007610
-0.007626
-0.007556
-0.007593
-0.007602
-0.007570
-0.007544
-0.007523
-0.007515
-0.007372
-0.007393
-0.007341
-0.007373
-0.007344
-0.007264
-0.007232
-0.007193
-0.007181
-0.007076
-0.007042
-0.007032
-0.007073
-0.006989
-0.006904
-0.006885
-0.006868
-0.006836
-0.006784
-0.006786
-0.006755
-0.006756
-0.006753
-0.006708
-0.006614
-0.006549
-0.006526
-0.006497
-0.006503
-0.006477
-0.006475
-0.006481
-0.006422
-0.006374
-0.006355
-0.006261
-0.006202
-0.006180
-0.006128
-0.006226
-0.006197
-0.006139
-0.006096
-0.006048
-0.005947
-0.005911
-0.005846
-0.005826
-0.005825
-0.005835
-0.005783
-0.005728
-0.005756
-0.005718
-0.005603
-0.005548
-0.005557
-0.005563
-0.005586
-0.005493
-0.005510
-0.005467
-0.005384
-0.005391
-0.005322
-0.005344
-0.005352
-0.005335
-0.005295
-0.005282
-0.005269
-0.005155
-0.005142
-0.005069
-0.005017
-0.005068
-0.005140
-0.005208
-0.005212
-0.005157
-0.005190
-0.005131
-0.005059
-0.005020
-0.005002
-0.005066
-0.005027
-0.005058
-0.005045
-0.005067
-0.005057
-0.004933
-0.004865
-0.004923
-0.004927
-0.004882
-0.004811
-0.004817
-0.004893
-0.004874
-0.004853
-0.004760
-0.004628
-0.004667
-0.004693
-0.004644
-0.004828
-0.004882
-0.004817
-0.004615
-0.004380
-0.004740
-0.004740
-0.004672
-0.004261
-0.004725
-0.005240
-0.005209
-0.004729
-0.003992
-0.004095
-0.003991
-0.004040
-0.004033
-0.004029
-0.004029
-0.003998
-0.003942
-0.003928
-0.003877
-0.003817
-0.003659
-0.003587
-0.003675
-0.003771
-0.003713
-0.003614
-0.003487
-0.003537
-0.003565
-0.003551
-0.003522
-0.003408
-0.003470
-0.003404
-0.003371
-0.003355
-0.003331
-0.003307
-0.003177
-0.003115
-0.003191
-0.003343
-0.003378
-0.003153
-0.003074
-0.003091
-0.003159
-0.003056
-0.002886
-0.002875
-0.002980
-0.003059
-0.003097
-0.003121
-0.003078
-0.003076
-0.002946
-0.002854
-0.002940
-0.003014
-0.002946
-0.002843
-0.002869
-0.002990
-0.003062
-0.002987
-0.002872
-0.002840
-0.002843
-0.002882
-0.002793
-0.002810
-0.002835
-0.002806
-0.002755
-0.002665
-0.002670
-0.002721
-0.002756
-0.002727
-0.002627
-0.002682
-0.002692
-0.002602
-0.002464
-0.002431
-0.002450
-0.002476
-0.002474
-0.002440
-0.002453
-0.002411
-0.002373
-0.002291
-0.002238
-0.002188
-0.002141
-0.002057
-0.002070
-0.002142
-0.002157
-0.002120
-0.002074
-0.001985
-0.001940
-0.001967
-0.001854
-0.001761
-0.001841
-0.001899
-0.001930
-0.001905
-0.001868
-0.001864
-0.001771
-0.001767
-0.001723
-0.001690
-0.001654
-0.001622
-0.001630
-0.001552
-0.001580
-0.001573
-0.001562
-0.001540
-0.001501
-0.001523
-0.001472
-0.001476
-0.001404
-0.001356
-0.001374
-0.001328
-0.001269
-0.001331
-0.001352
-0.001320
-0.001370
-0.001336
-0.001315
-0.001344
-0.001332
-0.001245
-0.001248
-0.001294
-0.001304
-0.001314
-0.001272
-0.001312
-0.001286
-0.001278
-0.001254
-0.001189
-0.001207
-0.001251
-0.001217
-0.001219
-0.001223
-0.001221
-0.001238
-0.001191
-0.001138
-0.001153
-0.001159
-0.001132
-0.001118
-0.001082
-0.001151
-0.001139
-0.001063
-0.001065
-0.001073
-0.001084
-0.001119
-0.001090
-0.001077
-0.001103
-0.001038
-0.001021
-0.000946
-0.000954
-0.000939
-0.001001
-0.000962
-0.000930
-0.001002
-0.000971
-0.000858
-0.000800
-0.000807
-0.000813
-0.000850
-0.000796
-0.000812
-0.000844
-0.000843
-0.000762
-0.000760
-0.000710
-0.000678
-0.000698
-0.000640
-0.000599
-0.000633
-0.000641
-0.000567
-0.000542
-0.000529
-0.000542
-0.000476
-0.000460
-0.000480
-0.000475
-0.000533
-0.000493
-0.000425
-0.000382
-0.000360
-0.000311
-0.000308
-0.000367
-0.000405
-0.000380
-0.000303
-0.000377
-0.000350
-0.000367
-0.000312
-0.000226
-0.000280
-0.000321
-0.000311
-0.000293
-0.000303
-0.000304
-0.000293
-0.000296
-0.000283
-0.000243
-0.000307
-0.000327
-0.000289
-0.000254
-0.000263
-0.000256
-0.000221
-0.000180
-0.000170
-0.000208
-0.000234
-0.000212
-0.000234
-0.000237
-0.000258
-0.000221
-0.000168
-0.000205
-0.000217
-0.000233
-0.000214
-0.000230
-0.000174
-0.000184
-0.000195
-0.000147
-0.000145
-0.000137
-0.000169
-0.000101
-0.000103
-0.000122
-0.000144
-0.000129
-0.000087
-0.000085
-0.000089
-0.000049
-0.000089
-0.000089
-0.000091
-0.000151
-0.000143
-0.000107
-0.000092
-0.000096
-0.000093
-0.000075
-0.000071
-0.000043
-0.000036
-0.000034
0.000069
-0.000009
-0.000003
-0.000039
-0.000018
0.000006
-0.000029
0.000018
-0.000013
0.000020
0.000009
-0.000002
0.000031
0.000039
0.000055
0.000017
0.000071
0.000065
0.000056
0.000042
0.000017
0.000064
0.000078
0.000089
0.000082
0.000066
0.000085
0.000041
0.000054
0.000068
0.000052
0.000066
0.000087
0.000082
0.000077
0.000102
0.000113
0.000087
0.000123
0.000091
0.000120
0.000089
0.000058
0.000071
0.000112
0.000130
0.000125
0.000081
0.000082
0.000112
0.000128
0.000111
0.000098
0.000136
0.000141
0.000162
0.000083
0.000139
0.000147
0.000116
0.000117
0.000161
0.000172
0.000197
0.000151
0.000142
0.000131
0.000114
0.000168
0.000174
0.000153
0.000183
0.000179
0.000171
0.000184
0.000175
0.000196
0.000192
0.000196
0.000158
0.000159
0.000212
0.000228
0.000199
0.000199
0.000214
0.000183
0.000197
0.000193
0.000203
0.000207
0.000201
0.000210
0.000181
0.000233
0.000216
0.000238
0.000206
0.000244
0.000259
0.000215
0.000260
0.000234
0.000218
0.000243
0.000273
0.000275
0.000247
0.000240
0.000257
0.000241
0.000303
0.000309
0.000256
0.000290
0.000267
0.000237
0.000272
0.000250
0.000250
0.000271
0.000273
0.000280
0.000272
0.000289
0.000306
0.000286
0.000288
0.000281
0.000323
0.000282
0.000261
0.000281
0.000326
0.000423
0.000413
0.000355
0.000316
0.000297
0.000307
0.000304
0.000312
0.000313
0.000360
0.000292
0.000278
0.000333
0.000306
0.000351
0.000365
0.000353
0.000369
0.000273
0.000337
0.000348
0.000306
0.000337
0.000330
0.000374
0.000363
0.000374
0.000338
0.000380
0.000351
0.000370
0.000370
0.000351
0.000312
0.000333
0.000383
0.000392
0.000406
0.000367
0.000377
0.000398
0.000426
0.000416
0.000413
0.000386
0.000345
0.000396
0.000419
0.000416
0.000375
0.000377
0.000378
0.000366
0.000374
0.000364
0.000403
0.000394
0.000365
0.000373
0.000364
0.000342
0.000365
0.000414
0.000378
0.000395
0.000415
0.000392
0.000392
0.000394
0.000400
0.000376
0.000418
0.000382
0.000402
0.000434
0.000414
0.000385
0.000393
0.000417
0.000440
0.000407
0.000414
0.000426
0.000434
0.000429
0.000419
0.000429
0.000443
0.000464
0.000457
0.000488
0.000438
0.000419
0.000440
0.000439
0.000457
0.000432
0.000418
0.000441
0.000447
0.000460
0.000439
0.000427
0.000399
0.000400
0.000466
0.000472
0.000466
0.000474
0.000467
0.000448
0.000434
0.000413
0.000478
0.000428
0.000430
0.000430
0.000426
0.000468
0.000448
0.000447
0.000426
0.000463
0.000415
0.000452
0.000468
0.000445
0.000505
0.000487
0.000471
0.000480
0.000434
0.000460
0.000458
0.000454
0.000461
0.000422
0.000489
0.000453
0.000507
0.000485
0.000464
0.000497
0.000453
0.000477
0.000512
0.000490
0.000501
0.000561
0.000540
0.000505
0.000512
0.000475
0.000480
0.000491
0.000488
0.000543
0.000536
0.000488
0.000495
0.000483
0.000517
0.000533
0.000517
0.000535
0.000531
0.000518
0.000560
0.000555
0.000509
0.000534
0.000520
0.000530
0.000543
0.000524
0.000582
0.000582
0.000545
0.000545
0.000532
0.000600
0.000571
0.000524
0.000507
0.000537
0.000542
0.000505
0.000511
0.000551
0.000523
0.000496
0.000493
0.000529
0.000528
0.000548
0.000536
0.000504
0.000530
0.000468
0.000480
0.000492
0.000459
0.000490
0.000550
0.000510
0.000514
0.000540
0.000573
0.000524
0.000536
0.000536
0.000509
0.000488
0.000533
0.000543
0.000514
0.000531
0.000521
0.000554
0.000543
0.000537
0.000559
0.000501
0.000537
0.000560
0.000520
0.000540
0.000499
0.000496
0.000507
0.000536
0.000544
0.000537
0.000530
0.000549
0.000527
0.000510
0.000534
0.000509
0.000531
0.000499
0.000542
0.000541
0.000559
0.000599
0.000532
0.000559
0.000562
0.000519
0.000542
0.000512
0.000538
0.000547
0.000556
0.000566
0.000536
0.000539
0.000541
0.000539
0.000564
0.000578
0.000581
0.000614
0.000587
0.000586
0.000576
0.000602
0.000605
0.000630
0.000592
0.000598
0.000612
0.000605
0.000626
0.000605
0.000592
0.000613
0.000687
0.000618
0.000596
0.000610
0.000594
0.000567
0.000581
0.000580
0.000615
0.000633
0.000596
0.000605
0.000538
0.000556
0.000577
0.000574
0.000569
0.000611
0.000605
0.000580
0.000579
0.000625
0.000593
0.000592
0.000593
0.000586
0.000605
0.000550
0.000569
0.000607
0.000605
0.000593
0.000609
0.000591
0.000593
0.000649
0.000586
0.000591
0.000587
0.000548
0.000642
0.000566
0.000595
0.000609
0.000630
0.000613
0.000538
0.000607
0.000556
0.000601
0.000547
0.000565
0.000584
0.000641
0.000654
0.000595
0.000581
0.000573
0.000659
0.000569
0.000651
0.000588
0.000616
0.000651
0.000605
0.000572
0.000583
0.000688
0.000574
0.000593
0.000567
0.000672
0.000624
0.000650
0.000657
0.000651
0.000679
0.000587
0.000615
0.000572
0.000644
0.000565
0.000523
0.000598
0.000656
0.000805
0.000595
0.000532
0.000500
0.000557
0.000594
0.000520
0.000502
0.000530
0.000783
0.000762
0.000714
0.000529
0.000584
0.000535
0.000558
0.000594
0.000557
0.000641
0.000663
0.000752
0.000687
0.000649
0.000501
0.000533
0.000661
0.000592
0.000700
0.000671
0.000794
0.000746
0.000747
0.000421
0.000091
0.000267
0.000466
0.000803
0.000364
0.000378
0.000410
0.000834
0.000314
-0.000340
-0.000408
0.000011
0.000835
0.000713
0.000785
0.000635
0.000743
0.000741
0.000625
0.000509
0.000483
0.000582
0.000681
0.000791
0.000720
0.000791
0.000724
0.000641
0.000600
0.000544
0.000617
0.000587
0.000746
0.000773
0.000792
0.000650
0.000618
0.000654
0.000607
0.000659
0.000532
0.000661
0.000720
0.000830
0.000805
0.000623
0.000521
0.000598
0.000712
0.000672
0.000669
0.000670
0.000780
0.000741
0.000683
0.000663
0.000614
0.000651
0.000612
0.000658
0.000645
0.000718
0.000759
0.000724
0.000661
0.000666
0.000623
0.000633
0.000749
0.000631
0.000718
0.000709
0.000694
0.000685
0.000693
0.000699
0.000631
0.000664
0.000687
0.000740
0.000686
0.000659
0.000677
0.000660
0.000691
0.000751
0.000637
0.000620
0.000645
0.000714
0.000778
0.000757
0.000709
0.000721
0.000742
0.000650
0.000700
0.000694
0.000671
0.000684
0.000660
0.000707
0.000724
0.000679
0.000667
0.000653
0.000658
0.000645
0.000672
0.000676
0.000642
0.000672
0.000629
0.000619
0.000678
0.000654
0.000647
0.000679
0.000666
0.000721
0.000651
0.000689
0.000673
0.000614
0.000681
0.000671
0.000630
0.000677
0.000660
0.000642
0.000635
0.000608
0.000644
0.000617
0.000607
0.000671
0.000636
0.000631
0.000661
0.000706
0.000605
0.000620
0.000629
0.000622
0.000677
0.000646
0.000676
0.000654
0.000645
0.000648
0.000619
0.000679
0.000647
0.000608
0.000707
0.000673
0.000687
0.000681
0.000663
0.000651
0.000686
0.000685
0.000713
0.000702
0.000662
0.000689
0.000660
0.000712
0.000662
0.000678
0.000670
0.000664
0.000668
0.000625
0.000650
0.000711
0.000663
0.000623
0.000614
0.000660
0.000679
0.000678
0.000705
0.000705
0.000715
0.000697
0.000688
0.000649
0.000634
0.000644
0.000667
0.000656
0.000649
0.000690
0.000662
0.000660
0.000683
0.000715
0.000686
0.000682
0.000733
0.000698
0.000691
0.000640
0.000691
0.000659
0.000632
0.000690
0.000652
0.000665
0.000672
0.000690
0.000694
0.000695
0.000626
0.000677
0.000732
0.000689
0.000700
0.000689
0.000696
0.000683
0.000723
0.000706
0.000718
0.000702
0.000726
0.000723
0.000712
0.000754
0.000712
0.000682
0.000669
0.000686
0.000695
0.000666
0.000652
0.000673
0.000667
0.000668
0.000659
0.000670
0.000681
0.000701
0.000693
0.000671
0.000681
0.000711
0.000668
0.000628
0.000629
0.000599
0.000670
0.000644
0.000641
0.000659
0.000615
0.000657
0.000630
0.000659
0.000622
0.000621
0.000645
0.000644
0.000644
0.000617
0.000629
0.000663
0.000639
0.000623
0.000667
0.000643
0.000708
0.000678
0.000623
0.000617
0.000668
0.000658
0.000679
0.000702
0.000614
0.000637
0.000643
0.000635
0.000638
0.000601
0.000656
0.000644
0.000609
0.000657
0.000644
0.000669
0.000637
0.000645
0.000676
0.000623
0.000689
0.000654
0.000638
0.000685
0.000605
0.000644
0.000626
0.000606
0.000643
0.000562
0.000626
0.000664
0.000646
0.000638
0.000651
0.000655
0.000664
0.000687
0.000617
0.000628
0.000673
0.000679
0.000665
0.000584
0.000595
0.000645
0.000681
0.000633
0.000604
0.000662
0.000644
0.000667
0.000638
0.000678
0.000607
0.000696
0.000656
0.000629
0.000633
0.000593
0.000651
0.000655
0.000658
0.000659
0.000662
0.000632
0.000644
0.000643
0.000663
0.000646
0.000654
0.000623
0.000593
0.000673
0.000672
0.000662
0.000686
0.000659
0.000670
0.000642
0.000620
0.000601
0.000622
0.000664
0.000614
0.000648
0.000662
0.000658
0.000603
0.000629
0.000614
0.000575
0.000650
0.000639
0.000630
0.000639
0.000638
0.000636
0.000599
0.000664
0.000659
0.000612
0.000697
0.000659
0.000672
0.000651
0.000658
0.000684
0.000668
0.000638
0.000677
0.000677
0.000608
0.000656
0.000669
0.000625
0.000674
0.000649
0.000646
0.000660
0.000645
0.000713
0.000636
0.000636
0.000653
0.000671
0.000650
0.000619
0.000661
0.000634
0.000646
0.000638
0.000696
0.000636
0.000665
0.000682
0.000625
0.000659
0.000654
0.000666
0.000623
0.000650
0.000683
0.000620
0.000664
0.000634
0.000635
0.000653
0.000603
0.000632
0.000618
0.000644
0.000672
0.000637
0.000675
0.000648
0.000620
0.000658
0.000646
0.000658
0.000655
0.000620
0.000605
0.000602
0.000628
0.000596
0.000631
0.000652
0.000640
0.000625
0.000632
0.000651
0.000650
0.000598
0.000604
0.000646
0.000639
0.000677
0.000632
0.000630
0.000664
0.000630
0.000682
0.000650
0.000658
0.000652
0.000668
0.000637
0.000591
0.000656
0.000653
0.000633
0.000651
0.000640
0.000646
0.000677
0.000609
0.000568
0.000608
0.000698
0.000662
0.000678
0.000680
0.000647
0.000656
0.000630
0.000654
0.000636
0.000662
0.000665
0.000655
0.000619
0.000672
0.000644
0.000624
0.000617
0.000645
0.000629
0.000630
0.000596
0.000623
0.000644
0.000598
0.000622
0.000610
0.000626
0.000616
0.000594
0.000589
0.000639
0.000600
0.000623
0.000593
0.000626
0.000636
0.000650
0.000658
0.000625
0.000630
0.000589
0.000614
0.000599
0.000615
0.000620
0.000637
0.000599
0.000617
0.000619
0.000619
0.000590
0.000583
0.000639
0.000634
0.000670
0.000648
0.000621
0.000622
0.000584
0.000643
0.000655
0.000632
0.000641
0.000646
0.000677
0.000651
0.000593
0.000581
0.000615
0.000604
0.000624
0.000627
0.000644
0.000671
0.000624
0.000611
0.000633
0.000657
0.000651
0.000643
0.000640
0.000679
0.000639
0.000604
0.000634
0.000629
0.000644
0.000616
0.000610
0.000623
0.000636
0.000650
0.000636
0.000608
0.000624
0.000630
0.000600
0.000629
0.000625
0.000618
0.000629
0.000607
0.000645
0.000608
0.000614
0.000622
0.000622
0.000618
0.000648
0.000650
0.000669
0.000653
0.000615
0.000635
0.000640
0.000633
0.000602
0.000553
0.000599
0.000575
0.000622
0.000602
0.000601
0.000680
0.000609
0.000640
0.000681
0.000617
0.000617
0.000645
0.000639
0.000607
0.000613
0.000609
0.000610
0.000652
0.000641
0.000636
0.000599
0.000645
0.000622
0.000633
0.000604
0.000611
0.000642
0.000564
0.000569
0.000605
0.000601
0.000611
0.000604
0.000578
0.000643
0.000619
0.000612
0.000613
0.000539
0.000580
0.000593
0.000561
0.000595
0.000574
0.000630
0.000589
0.000586
0.000590
0.000565
0.000592
0.000601
0.000627
0.000580
0.000623
0.000611
0.000622
0.000601
0.000594
0.000598
0.000614
0.000613
0.000604
0.000607
0.000603
0.000633
0.000563
0.000622
0.000586
0.000669
0.000676
0.000650
0.000672
0.000564
0.000610
0.000552
0.000590
0.000561
0.000584
0.000620
0.000592
0.000744
0.000779
0.000731
0.000827
0.000798
0.000775
0.000803
0.000780
0.000800
0.000784
0.000818
0.000749
0.000810
0.000755
0.000782
0.000724
0.000865
0.001060
0.000962
0.000979
0.001004
0.001009
0.000944
0.000976
0.000988
0.001000
0.000995
0.000973
0.000958
0.000958
0.000970
0.000933
0.000970
0.001164
0.001169
0.001146
0.001121
0.001094
0.001105
0.001089
0.001090
0.001112
0.001105
0.001132
0.001100
0.001091
0.001094
0.001105
0.001100
0.001170
0.001317
0.001286
0.001270
0.001263
0.001266
0.001285
0.001276
0.001263
0.001278
0.001297
0.001252
0.001297
0.001233
0.001251
0.001282
0.001315
0.001469
0.001403
0.001412
0.001424
0.001460
0.001459
0.001451
0.001459
0.001398
0.001440
0.001399
0.001416
0.001421
0.001438
0.001413
0.001412
0.001586
0.001593
0.001592
0.001569
0.001595
0.001563
0.001608
0.001586
0.001561
0.001605
0.001653
0.001690
0.001713
0.001750
0.001761
0.001778
0.001860
0.001938
0.001961
0.002044
0.002063
0.002086
0.002095
0.002144
0.002159
0.002134
0.002156
0.002199
0.002226
0.002298
0.002335
0.002311
0.002335
0.002576
0.002676
0.002626
0.002636
0.002698
0.002770
0.002798
0.002770
0.002765
0.002761
0.002799
0.002814
0.002778
0.002805
0.002970
0.003067
0.003213
0.003245
0.003202
0.003310
0.003310
0.003283
0.003254
0.003314
0.003391
0.003450
0.003367
0.003289
0.003271
0.003325
0.003417
0.003375
0.003438
0.003550
0.003685
0.003715
0.003706
0.003577
0.003585
0.003667
0.003657
0.003646
0.003543
0.003628
0.003697
0.003703
0.003582
0.003508
0.003502
0.003793
0.003954
0.003900
0.003890
0.003954
0.004083
0.004090
0.003826
0.003485
0.003533
0.003728
0.003916
0.003561
0.003589
0.003683
0.004151
0.003948
0.003624
0.003679
0.004143
0.004942
0.004911
0.004927
0.004897
0.005026
0.005051
0.005036
0.004904
0.004983
0.005169
0.005311
0.005313
0.005290
0.005422
0.005495
0.005592
0.005629
0.005608
0.005700
0.005860
0.005950
0.005880
0.005811
0.005772
0.005845
0.005908
0.005906
0.005916
0.005935
0.006129
0.006269
0.006247
0.006162
0.006178
0.006300
0.006382
0.006309
0.006237
0.006334
0.006391
0.006399
0.006340
0.006222
0.006236
0.006313
0.006370
0.006407
0.006414
0.006469
0.006511
0.006513
0.006477
0.006430
0.006477
0.006443
0.006391
0.006409
0.006364
0.006300
0.006363
0.006339
0.006232
0.006335
0.006430
0.006386
0.006323
0.006357
0.006299
0.006310
0.006305
0.006228
0.006235
0.006168
0.006100
0.006075
0.006006
0.005945
0.005964
0.006054
0.006059
0.006095
0.006231
0.006258
0.006272
0.006323
0.006369
0.006406
0.006428
0.006462
0.006464
0.006492
0.006535
0.006545
0.006539
0.006625
0.006764
0.006764
0.006816
0.006838
0.006873
0.006941
0.006937
0.006941
0.006989
0.007024
0.007040
0.007042
0.007012
0.007024
0.007109
0.007089
0.007143
0.007126
0.007151
0.007211
0.007233
0.007240
0.007227
0.007268
0.007290
0.007304
0.007279
0.007262
0.007189
0.007233
0.007234
0.007230
0.007212
0.007325
0.007315
0.007333
0.007367
0.007321
0.007288
0.007288
0.007310
0.007233
0.007254
0.007192
0.007183
0.007117
0.007126
0.007113
0.007041
0.007043
0.006998
0.006932
0.006923
0.006862
0.006830
0.006790
0.006663
0.006652
0.006601
0.006562
0.006444
0.006385
0.006354
0.006251
0.006158
0.006095
0.006051
0.006018
0.006040
0.006012
0.006086
0.006098
0.006117
0.006143
0.006127
0.006116
0.006125
0.006145
0.006137
0.006165
0.006149
0.006153
0.006164
0.006151
0.006188
0.006184
0.006142
0.006126
0.006141
0.006104
0.006082
0.006080
0.006043
0.006012
0.006003
0.006015
0.006003
0.006007
0.005941
0.005861
0.005824
0.005809
0.005734
0.005694
0.005635
0.005664
0.005675
0.005565
0.005525
0.005513
0.005484
0.005453
0.005402
0.005342
0.005379
0.005311
0.005237
0.005201
0.005148
0.005125
0.005073
0.005014
0.005023
0.004950
0.004875
0.004872
0.004821
0.004744
0.004737
0.004700
0.004673
0.004518
0.004439
0.004427
0.004349
0.004349
0.004287
0.004199
0.004153
0.004129
0.004032
0.003998
0.003959
0.003911
0.003903
0.003841
0.003783
0.003802
0.003722
0.003713
0.003642
0.003538
0.003510
0.003495
0.003517
0.003567
0.003568
0.003502
0.003492
0.003479
0.003507
0.003545
0.003558
0.003562
0.003435
0.003470
0.003358
0.003247
0.003315
0.003244
0.003263
0.003271
0.003253
0.003245
0.003251
0.003216
0.003167
0.003172
0.003180
0.003165
0.003126
0.003000
0.003060
0.003075
0.002985
0.002983
0.002927
0.002891
0.002914
0.002880
0.002850
0.002849
0.002808
0.002747
0.002681
0.002671
0.002678
0.002595
0.002543
0.002519
0.002479
0.002474
0.002444
0.002371
0.002369
0.002319
0.002281
0.002309
0.002269
0.002235
0.002185
0.002161
0.002130
0.002026
0.001942
0.001939
0.001902
0.001862
0.001826
0.001745
0.001745
0.001678
0.001646
0.001626
0.001581
0.001561
0.001507
0.001440
0.001465
0.001246
0.001038
0.001051
0.000952
0.000941
0.000839
0.000803
0.000778
0.000751
0.000755
0.000726
0.000750
0.000755
0.000722
0.000714
0.000706
0.000717
0.000543
0.000506
0.000516
0.000493
0.000488
0.000477
0.000478
0.000462
0.000497
0.000502
0.000472
0.000508
0.000500
0.000467
0.000463
0.000430
0.000421
0.000395
0.000365
0.000365
0.000371
0.000332
0.000344
0.000305
0.000352
0.000376
0.000314
0.000345
0.000361
0.000342
0.000296
0.000289
0.000256
0.000101
0.000040
0.000021
0.000015
0.000046
0.000000
0.000054
0.000036
0.000058
0.000078
0.000017
0.000046
0.000070
0.000072
0.000040
0.000004
-0.000153
-0.000241
-0.000265
-0.000303
-0.000337
-0.000313
-0.000257
-0.000326
-0.000288
-0.000193
-0.000173
-0.000204
-0.000174
-0.000228
-0.000215
-0.000237
-0.000310
-0.000427
-0.000487
-0.000525
-0.000506
-0.000506
-0.000549
-0.000485
-0.000436
-0.000408
-0.000422
-0.000402
-0.000414
-0.000389
-0.000378
-0.000387
-0.000411
-0.000636
-0.000770
-0.000725
-0.000751
-0.000717
-0.000715
-0.000709
-0.000649
-0.000638
-0.000647
-0.000618
-0.000555
-0.000587
-0.000509
-0.000622
-0.000608
-0.000702
-0.000881
-0.000855
-0.000924
-0.000893
-0.000917
-0.000857
-0.000848
-0.000818
-0.000775
-0.000754
-0.000746
-0.000788
-0.000749
-0.000785
-0.000770
-0.000812
-0.001028
-0.001058
-0.001052
-0.001099
-0.001095
-0.001069
-0.001023
-0.000992
-0.000992
-0.000949
-0.000929
-0.000947
-0.000932
-0.000884
-0.000916
-0.000959
-0.001057
-0.001172
-0.001147
-0.001179
-0.001150
-0.001161
-0.001182
-0.001186
-0.001156
-0.001109
-0.001082
-0.001077
-0.001111
-0.001123
-0.001105
-0.001112
-0.001169
-0.001322
-0.001369
-0.001327
-0.001303
-0.001307
-0.001320
-0.001217
-0.001194
-0.001266
-0.001287
-0.001258
-0.001235
-0.001237
-0.001233
-0.001229
-0.001235
-0.001218
-0.001268
-0.001270
-0.001270
-0.001306
-0.001273
-0.001237
-0.001258
-0.001242
-0.001199
-0.001192
-0.001224
-0.001233
-0.001148
-0.001185
-0.001160
-0.001250
-0.001292
-0.001241
-0.001284
-0.001319
-0.001337
-0.001274
-0.001280
-0.001315
-0.001304
-0.001255
-0.001296
-0.001254
-0.001265
-0.001262
-0.001231
-0.001242
-0.001225
-0.001233
-0.001265
-0.001250
-0.001252
-0.001255
-0.001242
-0.001218
-0.001246
-0.001249
-0.001199
-0.001216
-0.001212
-0.001223
-0.001194
-0.001188
-0.001141
-0.001183
-0.001196
-0.001190
-0.001203
-0.001192
-0.001212
-0.001228
-0.001192
-0.001169
-0.001181
-0.001185
-0.001160
-0.001162
-0.001133
-0.001147
-0.001104
-0.001083
-0.001164
-0.001166
-0.001132
-0.001080
-0.001136
-0.001099
-0.001101
-0.001184
-0.001148
-0.001110
-0.001103
-0.001113
-0.001104
-0.001096
-0.001077
-0.001092
-0.001120
-0.001109
-0.001087
-0.001083
-0.001079
-0.001078
-0.001105
-0.001115
-0.001108
-0.001099
-0.001053
-0.001065
-0.001057
-0.001079
-0.001121
-0.001117
-0.001143
-0.001157
-0.001162
-0.001162
-0.001144
-0.001134
-0.001166
-0.001163
-0.001168
-0.001171
-0.001106
-0.001138
-0.001149
-0.001087
-0.001061
-0.001070
-0.001101
-0.001106
-0.001092
-0.001082
-0.001058
-0.001081
-0.001089
-0.001062
-0.001061
-0.001078
-0.001104
-0.001094
-0.001025
-0.001053
-0.001109
-0.001078
-0.001025
-0.001066
-0.001065
-0.001050
-0.001037
-0.001015
-0.001061
-0.001019
-0.001012
-0.001038
-0.001030
-0.000984
-0.000982
-0.000975
-0.000997
-0.001006
-0.001040
-0.000988
-0.000929
-0.000998
-0.001030
-0.001008
-0.001046
-0.001037
-0.001030
-0.000988
-0.000991
-0.001005
-0.000988
-0.000979
-0.000951
-0.001013
-0.000972
-0.000937
-0.000973
-0.000984
-0.000955
-0.000996
-0.000973
-0.000957
-0.000983
-0.000942
-0.000947
-0.000959
-0.000970
-0.000949
-0.000969
-0.000955
-0.000937
-0.000947
-0.000943
-0.000949
-0.000957
-0.000934
-0.000926
-0.000934
-0.000907
-0.000927
-0.000913
-0.000966
-0.000915
-0.000854
-0.000808
-0.000824
-0.000871
-0.000775
-0.000798
-0.000840
-0.000791
-0.000830
-0.000793
-0.000794
-0.000890
-0.000904
-0.000877
-0.000863
-0.000905
-0.000864
-0.000876
-0.000855
-0.000867
-0.000873
-0.000785
-0.000746
-0.000788
-0.000824
-0.000801
-0.000806
-0.000792
-0.000822
-0.000797
-0.000795
-0.000783
-0.000789
-0.000795
-0.000804
-0.000814
-0.000826
-0.000855
-0.000773
-0.000775
-0.000799
-0.000767
-0.000792
-0.000795
-0.000772
-0.000770
-0.000799
-0.000760
-0.000806
-0.000775
-0.000772
-0.000794
-0.000739
-0.000752
-0.000749
-0.000737
-0.000714
-0.000735
-0.000734
-0.000753
-0.000736
-0.000763
-0.000835
-0.000803
-0.000787
-0.000727
-0.000741
-0.000713
-0.000675
-0.000709
-0.000713
-0.000767
-0.000732
-0.000744
-0.000712
-0.000684
-0.000802
-0.000755
-0.000741
-0.000724
-0.000729
-0.000805
-0.000708
-0.000654
-0.000674
-0.000715
-0.000724
-0.000674
-0.000638
-0.000725
-0.000784
-0.000718
-0.000569
-0.000531
-0.000621
-0.000679
-0.000680
-0.000612
-0.000540
-0.000634
-0.000712
-0.000691
-0.000620
-0.000481
-0.000489
-0.000600
-0.000650
-0.000680
-0.000663
-0.000604
-0.000610
-0.000619
-0.000560
-0.000529
-0.000525
-0.000580
-0.000728
-0.000738
-0.000578
-0.000483
-0.000544
-0.000636
-0.000577
-0.000491
-0.000429
-0.000694
-0.001020
-0.000905
-0.000648
-0.000400
-0.000845
-0.000919
-0.000818
-0.000345
-0.000806
-0.001590
-0.001642
-0.001228
-0.000300
-0.000390
-0.000498
-0.000641
-0.000578
-0.000491
-0.000589
-0.000729
-0.000652
-0.000545
-0.000482
-0.000482
-0.000525
-0.000504
-0.000480
-0.000508
-0.000632
-0.000670
-0.000553
-0.000450
-0.000451
-0.000437
-0.000480
-0.000581
-0.000631
-0.000633
-0.000581
-0.000508
-0.000473
-0.000458
-0.000375
-0.000315
-0.000498
-0.000635
-0.000667
-0.000485
-0.000353
-0.000438
-0.000528
-0.000518
-0.000382
-0.000329
-0.000444
-0.000482
-0.000432
-0.000425
-0.000393
-0.000350
-0.000387
-0.000351
-0.000349
-0.000512
-0.000580
-0.000552
-0.000447
-0.000374
-0.000410
-0.000427
-0.000400
-0.000412
-0.000438
-0.000447
-0.000501
-0.000464
-0.000422
-0.000417
-0.000428
-0.000422
-0.000409
-0.000410
-0.000396
-0.000416
-0.000412
-0.000427
-0.000468
-0.000364
-0.000365
-0.000355
-0.000406
-0.000410
-0.000453
-0.000474
-0.000398
-0.000410
-0.000383
-0.000405
-0.000370
-0.000400
-0.000390
-0.000354
-0.000367
-0.000412
-0.000383
-0.000375
-0.000399
-0.000401
-0.000360
-0.000384
-0.000357
-0.000379
-0.000403
-0.000380
-0.000381
-0.000390
-0.000362
-0.000344
-0.000357
-0.000344
-0.000373
-0.000352
-0.000379
-0.000373
-0.000375
-0.000334
-0.000341
-0.000312
-0.000305
-0.000314
-0.000318
-0.000360
-0.000366
-0.000395
-0.000357
-0.000275
-0.000320
-0.000343
-0.000336
-0.000300
-0.000327
-0.000336
-0.000321
-0.000336
-0.000392
-0.000372
-0.000319
-0.000348
-0.000368
-0.000309
-0.000285
-0.000330
-0.000385
-0.000380
-0.000338
-0.000326
-0.000314
-0.000352
-0.000338
-0.000338
-0.000327
-0.000369
-0.000379
-0.000354
-0.000351
-0.000322
-0.000330
-0.000345
-0.000310
-0.000309
-0.000285
-0.000302
-0.000329
-0.000284
-0.000297
-0.000263
-0.000311
-0.000329
-0.000316
-0.000284
-0.000262
-0.000319
-0.000296
-0.000248
-0.000254
-0.000226
-0.000260
-0.000298
-0.000257
-0.000224
-0.000234
-0.000236
-0.000263
-0.000260
-0.000241
-0.000251
-0.000245
-0.000279
-0.000254
-0.000248
-0.000253
-0.000253
-0.000253
-0.000219
-0.000186
-0.000239
-0.000226
-0.000249
-0.000238
-0.000243
-0.000220
-0.000190
-0.000254
-0.000259
-0.000240
-0.000243
-0.000242
-0.000214
-0.000259
-0.000237
-0.000194
-0.000247
-0.000277
-0.000295
-0.000248
-0.000224
-0.000257
-0.000246
-0.000241
-0.000217
-0.000186
-0.000179
-0.000236
-0.000242
-0.000211
-0.000215
-0.000206
-0.000211
-0.000245
-0.000197
-0.000192
-0.000237
-0.000212
-0.000185
-0.000189
-0.000194
-0.000207
-0.000232
-0.000217
-0.000200
-0.000179
-0.000173
-0.000173
-0.000193
-0.000233
-0.000186
-0.000235
-0.000207
-0.000212
-0.000243
-0.000187
-0.000201
-0.000228
-0.000221
-0.000202
-0.000203
-0.000175
-0.000185
-0.000197
-0.000191
-0.000160
-0.000190
-0.000182
-0.000173
-0.000202
-0.000115
-0.000141
-0.000174
-0.000158
-0.000195
-0.000148
-0.000175
-0.000205
-0.000159
-0.000208
-0.000162
-0.000192
-0.000236
-0.000183
-0.000151
-0.000130
-0.000134
-0.000134
-0.000122
-0.000154
-0.000132
-0.000153
-0.000168
-0.000127
-0.000161
-0.000144
-0.000214
-0.000208
-0.000180
-0.000139
-0.000051
0.000033
0.000064
0.000060
-0.000005
0.000004
0.000023
0.000017
-0.000002
-0.000117
-0.000275
-0.000417
-0.000470
-0.000505
-0.000489
-0.000468
-0.000368
-0.000284
-0.000089
0.000014
0.000033
0.000032
-0.000041
-0.000057
-0.000088
-0.000172
-0.000298
-0.000383
-0.000396
-0.000379
-0.000328
-0.000240
-0.000216
-0.000200
-0.000098
-0.000059
-0.000055
-0.000079
-0.000185
-0.000151
-0.000065
0.000056
0.000126
0.000166
0.000175
0.000131
0.000204
0.000180
0.000078
-0.000323
-0.000773
-0.000850
-0.000864
-0.000833
-0.000756
-0.000731
-0.000651
-0.000585
-0.000516
-0.000494
-0.000515
-0.000521
-0.000565
-0.000642
-0.000755
-0.001077
-0.001723
-0.001879
-0.001953
-0.001977
-0.001928
-0.001989
-0.002078
-0.002212
-0.002206
-0.002128
-0.002096
-0.002121
-0.002153
-0.002212
-0.002398
-0.002516
-0.002947
-0.003449
-0.003719
-0.004089
-0.004192
-0.004258
-0.004299
-0.004399
-0.004396
-0.004445
-0.004577
-0.004690
-0.004746
-0.004948
-0.005175
-0.005610
-0.005725
-0.005794
-0.006204
-0.006258
-0.006447
-0.006689
-0.006728
-0.007080
-0.007383
-0.007452
-0.007520
-0.007612
-0.007654
-0.007889
-0.007874
-0.007745
-0.007417
-0.003642
-0.002378
-0.002579
-0.002141
-0.002422
-0.002420
-0.002635
-0.002667
-0.002821
-0.002848
-0.002976
-0.003081
-0.003074
-0.003504
-0.002953
-0.003375
-0.000740
0.002947
0.002429
0.002823
0.002754
0.002647
0.002416
0.002165
0.002144
0.002210
0.002507
0.002364
0.002487
0.001605
0.001351
0.001078
0.001707
0.006762
0.007733
0.007321
0.007496
0.007165
0.007130
0.006925
0.007045
0.006787
0.006841
0.006833
0.006625
0.006643
0.006168
0.006527
0.006049
0.010024
0.013492
0.012706
0.013003
0.012703
0.012765
0.012643
0.012529
0.012452
0.012425
0.012393
0.012243
0.012584
0.012196
0.012446
0.012081
0.013764
0.018914
0.019058
0.019029
0.019155
0.019045
0.019212
0.019150
0.019056
0.019182
0.019333
0.019125
0.019251
0.019404
0.019258
0.019475
0.019365
0.024298
0.026717
0.025970
0.026567
0.026553
0.026658
0.026665
0.026514
0.026445
0.026640
0.026676
0.026599
0.026921
0.026650
0.026964
0.026246
0.029261
0.034031
0.033459
0.033703
0.033795
0.033831
0.033728
0.033664
0.033498
0.033535
0.033605
0.033512
0.033646
0.033388
0.033327
0.033057
0.033558
0.038900
0.039852
0.039221
0.039405
0.039212
0.039190
0.039008
0.038885
0.038630
0.038599
0.038472
0.038314
0.038345
0.037884
0.038180
0.037305
0.041361
0.045002
0.044101
0.044347
0.044012
0.044162
0.043855
0.043754
0.043638
0.043552
0.043469
0.043125
0.043195
0.042764
0.042945
0.042284
0.043756
0.048798
0.048712
0.048554
0.048323
0.048296
0.048195
0.048011
0.048032
0.047929
0.047853
0.047542
0.047476
0.047307
0.047157
0.047249
0.046800
0.051632
0.053747
0.053013
0.053146
0.052864
0.052965
0.052576
0.052637
0.052480
0.052299
0.052172
0.051998
0.052135
0.051757
0.052102
0.051224
0.054006
0.058685
0.058094
0.058060
0.057693
0.057777
0.057465
0.057407
0.057311
0.056902
0.056796
0.056664
0.056684
0.056481
0.056404
0.055934
0.056174
0.061410
0.062488
0.061783
0.061725
0.061337
0.061412
0.061174
0.061102
0.060695
0.060359
0.060307
0.060011
0.059961
0.059621
0.059785
0.059008
0.062892
0.066633
0.065739
0.065844
0.065399
0.065296
0.065172
0.065065
0.064866
0.064380
0.064304
0.063910
0.063894
0.063723
0.063711
0.063026
0.064154
0.069164
0.069422
0.069096
0.068926
0.068558
0.068429
0.068105
0.067850
0.067614
0.067542
0.067460
0.067075
0.067122
0.066753
0.066614
0.066024
0.070803
0.073424
0.072524
0.072765
0.072441
0.072325
0.071943
0.071793
0.071756
0.071473
0.071247
0.070825
0.070805
0.070515
0.070757
0.069695
0.071795
0.076541
0.075824
0.075748
0.075516
0.075255
0.074902
0.074763
0.074677
0.074381
0.074185
0.073759
0.073423
0.073184
0.073077
0.072640
0.072507
0.077491
0.078932
0.078080
0.078250
0.077739
0.077514
0.077275
0.077319
0.076708
0.076499
0.076367
0.076208
0.075918
0.075508
0.075707
0.075551
0.078023
0.080985
0.080972
0.081101
0.080823
0.080642
0.080111
0.080247
0.079931
0.079484
0.079047
0.078897
0.078906
0.078640
0.078223
0.077958
0.076089
0.071217
0.069752
0.069446
0.068874
0.068911
0.068887
0.068586
0.068201
0.068076
0.068049
0.067617
0.067414
0.067165
0.067067
0.066506
0.066775
0.061442
0.057652
0.058489
0.057920
0.057636
0.057225
0.057137
0.056899
0.056909
0.056958
0.056519
0.056304
0.055864
0.056040
0.055456
0.056022
0.053552
0.047367
0.047677
0.047549
0.047327
0.047125
0.046958
0.046851
0.046569
0.046665
0.046228
0.046007
0.045978
0.045795
0.045634
0.045370
0.045437
0.039076
0.036813
0.037519
0.036833
0.036996
0.036556
0.036727
0.036275
0.036207
0.036169
0.035751
0.035878
0.035553
0.035742
0.034944
0.035862
0.031865
0.026736
0.027674
0.027056
0.027292
0.026968
0.026928
0.026863
0.026714
0.026749
0.026385
0.026413
0.026122
0.026356
0.025960
0.026068
0.025133
0.018489
0.017801
0.018030
0.017762
0.017751
0.017308
0.017359
0.017084
0.017173
0.016930
0.017007
0.016780
0.016585
0.016942
0.016286
0.016895
0.011759
0.008222
0.009402
0.009026
0.009093
0.008455
0.008530
0.008554
0.008613
0.008345
0.008406
0.008442
0.008102
0.008360
0.007858
0.008545
0.006079
0.000295
0.000305
0.000136
0.000165
0.000264
0.000442
0.000253
-0.000030
-0.000217
-0.000036
0.000275
-0.000273
-0.000216
-0.000291
0.000043
-0.000353
-0.006210
-0.008170
-0.007249
-0.007478
-0.007581
-0.007752
-0.008119
-0.008617
-0.008783
-0.008534
-0.007861
-0.008873
-0.009221
-0.009100
-0.008690
-0.008867
-0.014771
-0.019885
-0.017993
-0.015961
-0.015304
-0.015097
-0.015150
-0.015218
-0.015226
-0.015252
-0.014909
-0.014939
-0.015344
-0.015118
-0.015056
-0.014228
-0.015958
-0.022525
-0.023140
-0.022266
-0.022637
-0.022744
-0.022834
-0.022600
-0.022596
-0.022533
-0.022510
-0.022310
-0.022413
-0.022488
-0.022474
-0.022702
-0.022024
-0.027328
-0.030699
-0.029479
-0.029966
-0.029886
-0.029928
-0.029683
-0.029701
-0.029649
-0.029461
-0.029337
-0.029148
-0.029557
-0.029220
-0.029559
-0.028585
-0.030859
-0.036903
-0.036567
-0.036642
-0.036754
-0.036604
-0.036585
-0.036481
-0.036577
-0.036453
-0.036388
-0.036186
-0.036298
-0.036165
-0.035926
-0.035985
-0.035787
-0.041855
-0.043812
-0.042949
-0.043303
-0.042960
-0.043066
-0.042809
-0.042916
-0.042720
-0.042604
-0.042556
-0.042459
-0.042739
-0.042310
-0.042611
-0.041519
-0.045599
-0.050367
-0.049359
-0.049715
-0.049325
-0.049337
-0.049094
-0.049106
-0.049160
-0.049022
-0.049132
-0.048784
-0.048847
-0.048510
-0.048688
-0.047963
-0.049325
-0.055583
-0.055514
-0.055318
-0.055330
-0.054942
-0.054929
-0.054823
-0.054788
-0.054425
-0.054374
-0.054356
-0.054246
-0.054153
-0.053935
-0.053871
-0.053370
-0.059368
-0.062637
-0.061724
-0.062129
-0.061519
-0.061599
-0.061535
-0.061496
-0.061156
-0.060957
-0.060842
-0.060608
-0.060648
-0.060295
-0.060512
-0.060074
-0.062978
-0.067925
-0.068016
-0.068123
-0.067938
-0.067856
-0.067911
-0.067602
-0.067372
-0.067412
-0.067259
-0.067005
-0.066744
-0.066645
-0.066439
-0.066148
-0.065481
-0.064791
-0.064150
-0.063675
-0.063524
-0.063417
-0.063426
-0.063294
-0.062919
-0.062953
-0.062968
-0.062633
-0.062286
-0.062140
-0.062106
-0.061880
-0.062068
-0.060922
-0.059434
-0.059515
-0.059164
-0.059009
-0.058869
-0.058767
-0.058630
-0.058424
-0.058460
-0.058190
-0.057907
-0.057636
-0.057653
-0.057518
-0.057450
-0.057240
-0.055235
-0.054824
-0.054687
-0.054360
-0.054567
-0.054279
-0.054207
-0.054085
-0.053909
-0.053775
-0.053655
-0.053566
-0.053361
-0.053422
-0.053144
-0.052917
-0.051219
-0.050032
-0.050383
-0.050202
-0.050365
-0.050114
-0.049718
-0.049806
-0.049581
-0.049464
-0.049387
-0.049306
-0.049120
-0.049101
-0.049005
-0.048965
-0.047874
-0.046074
-0.046004
-0.045865
-0.045686
-0.045847
-0.045694
-0.045628
-0.045703
-0.045622
-0.045618
-0.045501
-0.045221
-0.045133
-0.045053
-0.044908
-0.044795
-0.042960
-0.042316
-0.042349
-0.042085
-0.042046
-0.041975
-0.041704
-0.041657
-0.041551
-0.041520
-0.041404
-0.041321
-0.041164
-0.041150
-0.040879
-0.041089
-0.039739
-0.038411
-0.038575
-0.038442
-0.038397
-0.038255
-0.038099
-0.037977
-0.037868
-0.037770
-0.037736
-0.037597
-0.037485
-0.037503
-0.037479
-0.037374
-0.037009
-0.035580
-0.035301
-0.035075
-0.034877
-0.034796
-0.034641
-0.034598
-0.034500
-0.034521
-0.034558
-0.034484
-0.034257
-0.034212
-0.034310
-0.034080
-0.034055
-0.033846
-0.033649
-0.033648
-0.033400
-0.033329
-0.033281
-0.033189
-0.033129
-0.032913
-0.032736
-0.032707
-0.032582
-0.032563
-0.032681
-0.032579
-0.032366
-0.032470
-0.032383
-0.032362
-0.032299
-0.032079
-0.032093
-0.031996
-0.031875
-0.031832
-0.031771
-0.031816
-0.031826
-0.031551
-0.031449
-0.031351
-0.031150
-0.031062
-0.031084
-0.031024
-0.030932
-0.030849
-0.030787
-0.030735
-0.030630
-0.030434
-0.030352
-0.030288
-0.030339
-0.030179
-0.029997
-0.030162
-0.030044
-0.029857
-0.029774
-0.029727
-0.029667
-0.029661
-0.029528
-0.029473
-0.029395
-0.029362
-0.029223
-0.029115
-0.029039
-0.029079
-0.028872
-0.028828
-0.028795
-0.028624
-0.028505
-0.028381
-0.028450
-0.028475
-0.028468
-0.028373
-0.028350
-0.028318
-0.028264
-0.028218
-0.028018
-0.028116
-0.027985
-0.027849
-0.027869
-0.027737
-0.027677
-0.027476
-0.027560
-0.027523
-0.027466
-0.027390
-0.027236
-0.027213
-0.027151
-0.027164
-0.027013
-0.026934
-0.026960
-0.026670
-0.026692
-0.026551
-0.026575
-0.026382
-0.026328
-0.026452
-0.026266
-0.026253
-0.026141
-0.026075
-0.025944
-0.025875
-0.025878
-0.025686
-0.025888
-0.025870
-0.025768
-0.025751
-0.025633
-0.025571
-0.025419
-0.025480
-0.025378
-0.025217
-0.025129
-0.025158
-0.025122
-0.024985
-0.024893
-0.024674
-0.024620
-0.024690
-0.024653
-0.024531
-0.024481
-0.024413
-0.024329
-0.024293
-0.024175
-0.024036
-0.023857
-0.023781
-0.023851
-0.023769
-0.023731
-0.023479
-0.023299
-0.023411
-0.023467
-0.023413
-0.023373
-0.023319
-0.023309
-0.023335
-0.023146
-0.023158
-0.023052
-0.022975
-0.023090
-0.022999
-0.022963
-0.022842
-0.022671
-0.022541
-0.022525
-0.022405
-0.022369
-0.022375
-0.022236
-0.022239
-0.022212
-0.022224
-0.022135
-0.022079
-0.022063
-0.021981
-0.021831
-0.021819
-0.021733
-0.021586
-0.021508
-0.021536
-0.021443
-0.021468
-0.021386
-0.021334
-0.021281
-0.021195
-0.021191
-0.020988
-0.021023
-0.020929
-0.020780
-0.020713
-0.020618
-0.020476
-0.020366
-0.020418
-0.020357
-0.020429
-0.020390
-0.020333
-0.020416
-0.020454
-0.020475
-0.020239
-0.020205
-0.020073
-0.019982
-0.019887
-0.019851
-0.019817
-0.019689
-0.019666
-0.019602
-0.019642
-0.019609
-0.019458
-0.019463
-0.019533
-0.019523
-0.019310
-0.019248
-0.019144
-0.019075
-0.019097
-0.018918
-0.018874
-0.018762
-0.018760
-0.018729
-0.018685
-0.018634
-0.018446
-0.018358
-0.018437
-0.018412
-0.018096
-0.017922
-0.017868
-0.017699
-0.017690
-0.017557
-0.017427
-0.017403
-0.017372
-0.017418
-0.017421
-0.017477
-0.017346
-0.017351
-0.017598
-0.017828
-0.017818
-0.017767
-0.017655
-0.017426
-0.017468
-0.017430
-0.017313
-0.017225
-0.017152
-0.017266
-0.017225
-0.017146
-0.017022
-0.016800
-0.016812
-0.016968
-0.016939
-0.016804
-0.016836
-0.016737
-0.016534
-0.016533
-0.016399
-0.016393
-0.016303
-0.016378
-0.016478
-0.016374
-0.016354
-0.016173
-0.016036
-0.016125
-0.016153
-0.016129
-0.016100
-0.016050
-0.015863
-0.015778
-0.015704
-0.015692
-0.015692
-0.015605
-0.015740
-0.015632
-0.015507
-0.015379
-0.015335
-0.015266
-0.015239
-0.015176
-0.015147
-0.015089
-0.014930
-0.014817
-0.014856
-0.014845
-0.014837
-0.014890
-0.014924
-0.014912
-0.014876
-0.014678
-0.014638
-0.014673
-0.014671
-0.014603
-0.014526
-0.014472
-0.014371
-0.014249
-0.014268
-0.014256
-0.014135
-0.014195
-0.014026
-0.014028
-0.014068
-0.013919
-0.013790
-0.013763
-0.013751
-0.013744
-0.013725
-0.013659
-0.013688
-0.013652
-0.013642
-0.013719
-0.013720
-0.013744
-0.013503
-0.013425
-0.013398
-0.013341
-0.013190
-0.013165
-0.013156
-0.013054
-0.013076
-0.012972
-0.012905
-0.012845
-0.012676
-0.012747
-0.012731
-0.012708
-0.012650
-0.012516
-0.012432
-0.012513
-0.012525
-0.012473
-0.012536
-0.012461
-0.012430
-0.012317
-0.012293
-0.012365
-0.012224
-0.012189
-0.012162
-0.012108
-0.012133
-0.012026
-0.011922
-0.011907
-0.012015
-0.011990
-0.012042
-0.011955
-0.011885
-0.011786
-0.011716
-0.011723
-0.011709
-0.011590
-0.011549
-0.011428
-0.011356
-0.011306
-0.011306
-0.011213
-0.011102
-0.011164
-0.011160
-0.011187
-0.011093
-0.010989
-0.010889
-0.010998
-0.010965
-0.010908
-0.010899
-0.010899
-0.010874
-0.010873
-0.010954
-0.010924
-0.010732
-0.010776
-0.010674
-0.010759
-0.010726
-0.010603
-0.010528
-0.010548
-0.010567
-0.010506
-0.010478
-0.010395
-0.010420
-0.010420
-0.010394
-0.010476
-0.010410
-0.010314
-0.010215
-0.010146
-0.010287
-0.010145
-0.010041
-0.010007
-0.010026
-0.009922
-0.009874
-0.009765
-0.009688
-0.009626
-0.009504
-0.009599
-0.009610
-0.009546
-0.009499
-0.009421
-0.009577
-0.009543
-0.009466
-0.009517
-0.009500
-0.009427
-0.009336
-0.009266
-0.009188
-0.009210
-0.009120
-0.009069
-0.009079
-0.009018
-0.008998
-0.008948
-0.008844
-0.008815
-0.008741
-0.008835
-0.008898
-0.008826
-0.008839
-0.008687
-0.008595
-0.008608
-0.008577
-0.008543
-0.008518
-0.008465
-0.008460
-0.008478
-0.008366
-0.008351
-0.008330
-0.008413
-0.008478
-0.008423
-0.008411
-0.008321
-0.008211
-0.008135
-0.008127
-0.008201
-0.008161
-0.008079
-0.008086
-0.008150
-0.008043
-0.007916
-0.007891
-0.007869
-0.007960
-0.007878
-0.007771
-0.007755
-0.007620
-0.007606
-0.007675
-0.007735
-0.007654
-0.007467
-0.007426
-0.007530
-0.007599
-0.007474
-0.007503
-0.007572
-0.007765
-0.007808
-0.007463
-0.007178
-0.007096
-0.007203
-0.007623
-0.007974
-0.007879
-0.007746
-0.007503
-0.008045
-0.008216
-0.008179
-0.007827
-0.008367
-0.009407
-0.009539
-0.008860
-0.007469
-0.007069
-0.006897
-0.006960
-0.006948
-0.006839
-0.006627
-0.006509
-0.006496
-0.006535
-0.006418
-0.006267
-0.006382
-0.006663
-0.006923
-0.006817
-0.006420
-0.006155
-0.006128
-0.006112
-0.006229
-0.006190
-0.006083
-0.006005
-0.006040
-0.006061
-0.005989
-0.005920
-0.005956
-0.005923
-0.005868
-0.005927
-0.005784
-0.005664
-0.005678
-0.005646
-0.005547
-0.005604
-0.005636
-0.005575
-0.005433
-0.005384
-0.005448
-0.005446
-0.005348
-0.005008
-0.004630
-0.004600
-0.004555
-0.004283
-0.004256
-0.004276
-0.004275
-0.004305
-0.004342
-0.004273
-0.004207
-0.004084
-0.004117
-0.004076
-0.004068
-0.003823
-0.003195
-0.003033
-0.003103
-0.003033
-0.002964
-0.002993
-0.002907
-0.002962
-0.002982
-0.002973
-0.002947
-0.002936
-0.003000
-0.002890
-0.002779
-0.002697
-0.002221
-0.001822
-0.001910
-0.001846
-0.001704
-0.001676
-0.001600
-0.001591
-0.001647
-0.001726
-0.001666
-0.001626
-0.001682
-0.001668
-0.001546
-0.001612
-0.001243
-0.000638
-0.000665
-0.000667
-0.000440
-0.000425
-0.000463
-0.000378
-0.000301
-0.000264
-0.000283
-0.000340
-0.000374
-0.000400
-0.000162
-0.000248
-0.000221
0.000419
0.000614
0.000468
0.000575
0.000642
0.000581
0.000582
0.000632
0.000585
0.000495
0.000601
0.000549
0.000544
0.000708
0.000724
0.000667
0.001096
0.001513
0.001440
0.001567
0.001643
0.001591
0.001596
0.001626
0.001638
0.001629
0.001740
0.001769
0.001717
0.001859
0.001992
0.001820
0.002173
0.002778
0.002830
0.002854
0.002910
0.002828
0.002774
0.002880
0.002867
0.002790
0.002842
0.002927
0.002856
0.002827
0.002993
0.002959
0.003017
0.003569
0.003745
0.003698
0.003821
0.003783
0.003784
0.003754
0.003702
0.003559
0.003534
0.003662
0.003645
0.003507
0.003594
0.003647
0.003585
0.004044
0.004415
0.004471
0.004572
0.004590
0.004531
0.004633
0.004607
0.004574
0.004512
0.004548
0.004565
0.004418
0.004487
0.004502
0.004504
0.004700
0.005155
0.005293
0.005258
0.005361
0.005375
0.005346
0.005321
0.005305
0.005270
0.005243
0.005249
0.005158
0.005155
0.005148
0.005086
0.005103
0.005414
0.005661
0.005686
0.005757
0.005800
0.005760
0.005831
0.005842
0.005799
0.005848
0.005823
0.005757
0.005720
0.005737
0.005751
0.005748
0.005998
0.006396
0.006460
0.006500
0.006546
0.006518
0.006539
0.006579
0.006573
0.006553
0.006553
0.006612
0.006519
0.006487
0.006473
0.006472
0.006583
0.006962
0.007156
0.007183
0.007259
0.007254
0.007225
0.007177
0.007203
0.007170
0.007215
0.007221
0.007156
0.007109
0.007082
0.007096
0.007116
0.007374
0.007697
0.007696
0.007759
0.007815
0.007828
0.007804
0.007803
0.007812
0.007763
0.007805
0.007812
0.007715
0.007679
0.007787
0.007744
0.007948
0.008302
0.008483
0.008495
0.008472
0.008554
0.008462
0.008394
0.008389
0.008336
0.008286
0.008290
0.008272
0.008237
0.008200
0.008222
0.008349
0.008535
0.008768
0.008787
0.008750
0.008759
0.008735
0.008721
0.008729
0.008682
0.008627
0.008628
0.008660
0.008653
0.008610
0.008701
0.008777
0.008935
0.009350
0.009515
0.009498
0.009525
0.009503
0.009521
0.009494
0.009463
0.009387
0.009305
0.009385
0.009399
0.009315
0.009294
0.009368
0.009511
0.009870
0.010103
0.010151
0.010093
0.010061
0.009988
0.009945
0.009916
0.009807
0.009698
0.009738
0.009717
0.009621
0.009650
0.009653
0.009720
0.010014
0.010399
0.010475
0.010463
0.010497
0.010467
0.010415
0.010483
0.010463
0.010381
0.010381
0.010462
0.010481
0.010462
0.010491
0.010589
0.010751
0.011388
0.011686
0.011704
0.011776
0.011808
0.011754
0.011787
0.011763
0.011728
0.011635
0.011659
0.011688
0.011619
0.011579
0.011603
0.011687
0.011958
0.012376
0.012373
0.012347
0.012350
0.012264
0.012207
0.012202
0.012115
0.011963
0.011939
0.012035
0.011956
0.011907
0.011980
0.012003
0.012270
0.012725
0.012872
0.012882
0.012938
0.012879
0.012724
0.012783
0.012816
0.012701
0.012677
0.012696
0.012661
0.012618
0.012594
0.012658
0.012718
0.013111
0.013442
0.013507
0.013481
0.013395
0.013311
0.013215
0.013213
0.013096
0.012999
0.012937
0.012929
0.012880
0.012782
0.012876
0.012877
0.013139
0.013575
0.013603
0.013625
0.013643
0.013555
0.013506
0.013554
0.013512
0.013494
0.013482
0.013504
0.013457
0.013426
0.013477
0.013561
0.013701
0.014096
0.014410
0.014432
0.014450
0.014393
0.014277
0.014327
0.014296
0.014278
0.014219
0.014212
0.014136
0.014058
0.014050
0.013997
0.014025
0.014236
0.014497
0.014573
0.014613
0.014548
0.014446
0.014352
0.014291
0.014215
0.014114
0.014132
0.014015
0.013861
0.013871
0.013899
0.013949
0.014127
0.014442
0.014601
0.014691
0.014741
0.014742
0.014749
0.014780
0.014733
0.014729
0.014661
0.014639
0.014636
0.014572
0.014547
0.014610
0.014711
0.015067
0.015221
0.015220
0.015291
0.015212
0.015165
0.015181
0.015171
0.015084
0.015029
0.014932
0.014823
0.014718
0.014637
0.014577
0.014603
0.014709
0.014887
0.014965
0.014938
0.014895
0.014757
0.014724
0.014736
0.014669
0.014658
0.014603
0.014554
0.014463
0.014394
0.014404
0.014411
0.014533
0.014728
0.014827
0.014881
0.014883
0.014866
0.014812
0.014800
0.014818
0.014763
0.014778
0.014693
0.014588
0.014567
0.014520
0.014533
0.014518
0.014580
0.014656
0.014657
0.014577
0.014487
0.014404
0.014378
0.014329
0.014270
0.014174
0.014068
0.013986
0.013934
0.013831
0.013766
0.013777
0.013743
0.013795
0.013789
0.013780
0.013759
0.013743
0.013717
0.013688
0.013753
0.013735
0.013748
0.013756
0.013724
0.013679
0.013648
0.013727
0.013687
0.013800
0.013851
0.013807
0.013763
0.013714
0.013680
0.013686
0.013608
0.013610
0.013568
0.013479
0.013464
0.013341
0.013292
0.013178
0.013148
0.013147
0.013077
0.012980
0.012975
0.012846
0.012808
0.012728
0.012718
0.012714
0.012673
0.012616
0.012569
0.012547
0.012457
0.012421
0.012341
0.012360
0.012428
0.012442
0.012423
0.012351
0.012294
0.012317
0.012287
0.012324
0.012226
0.012223
0.012206
0.012095
0.012090
0.011990
0.011918
0.011887
0.011890
0.011829
0.011776
0.011778
0.011669
0.011575
0.011549
0.011499
0.011418
0.011362
0.011346
0.011285
0.011199
0.011113
0.011056
0.010988
0.010961
0.011003
0.010984
0.010953
0.010927
0.010987
0.010950
0.010890
0.010935
0.010987
0.010994
0.011000
0.011072
0.011027
0.011008
0.011070
0.011034
0.011101
0.011069
0.011025
0.011005
0.010976
0.010981
0.010933
0.010869
0.010782
0.010774
0.010771
0.010739
0.010648
0.010626
0.010583
0.010509
0.010532
0.010569
0.010466
0.010419
0.010350
0.010271
0.010178
0.010109
0.010019
0.009983
0.009939
0.009847
0.009754
0.009732
0.009682
0.009678
0.009600
0.009537
0.009509
0.009467
0.009411
0.009301
0.009299
0.009204
0.009166
0.009077
0.009053
0.009042
0.008975
0.008876
0.008874
0.008830
0.008755
0.008747
0.008711
0.008675
0.008565
0.008538
0.008480
0.008378
0.008343
0.008263
0.008185
0.008111
0.008061
0.008016
0.008010
0.007991
0.007895
0.007942
0.007944
0.007876
0.007847
0.007761
0.007711
0.007625
0.007581
0.007575
0.007519
0.007558
0.007595
0.007550
0.007558
0.007569
0.007556
0.007518
0.007548
0.007512
0.007564
0.007576
0.007503
0.007468
0.007460
0.007424
0.007397
0.007417
0.007338
0.007301
0.007252
0.007208
0.007174
0.007122
0.007104
0.007060
0.006980
0.006929
0.006839
0.006731
0.006683
0.006540
0.006491
0.006439
0.006324
0.006298
0.006213
0.006123
0.006100
0.006035
0.005965
0.005888
0.005841
0.005724
0.005673
0.005643
0.005551
0.005501
0.005439
0.005344
0.005361
0.005335
0.005252
0.005267
0.005208
0.005160
0.005117
0.005119
0.005064
0.004957
0.004905
0.004833
0.004780
0.004750
0.004696
0.004605
0.004601
0.004485
0.004431
0.004436
0.004366
0.004314
0.004280
0.004149
0.004034
0.003954
0.003902
0.003802
0.003736
0.003755
0.003712
0.003685
0.003635
0.003619
0.003599
0.003606
0.003584
0.003608
0.003567
0.003545
0.003570
0.003599
0.003540
0.003508
0.003526
0.003500
0.003462
0.003475
0.003481
0.003460
0.003484
0.003468
0.003401
0.003361
0.003349
0.003249
0.003231
0.003212
0.003200
0.003107
0.003006
0.003020
0.002953
0.002912
0.002856
0.002828
0.002705
0.002492
0.002402
0.002367
0.002582
0.002193
0.002158
0.001913
0.002131
0.001889
0.001283
0.001341
0.001444
0.002071
0.002018
0.002068
0.002022
0.002026
0.002027
0.002048
0.001997
0.001918
0.001991
0.001922
0.001892
0.001854
0.001827
0.001778
0.001727
0.001701
0.001614
0.001620
0.001615
0.001607
0.001568
0.001491
0.001482
0.001470
0.001379
0.001338
0.001178
0.001110
0.001131
0.001014
0.000985
0.000947
0.000915
0.000900
0.000810
0.000794
0.000744
0.000712
0.000677
0.000654
0.000599
0.000605
0.000672
0.000676
0.000664
0.000683
0.000749
0.000741
0.000741
0.000770
0.000781
0.000787
0.000747
0.000757
0.000767
0.000718
0.000735
0.000751
0.000705
0.000614
0.000588
0.000618
0.000566
0.000603
0.000596
0.000622
0.000633
0.000622
0.000602
0.000587
0.000573
0.000522
0.000488
0.000467
0.000492
0.000454
0.000489
0.000461
0.000459
0.000403
0.000405
0.000432
0.000472
0.000476
0.000441
0.000443
0.000436
0.000446
0.000454
0.000448
0.000473
0.000448
0.000368
0.000402
0.000436
0.000368
0.000406
0.000394
0.000399
0.000414
0.000415
0.000403
0.000363
0.000401
0.000358
0.000385
0.000368
0.000360
0.000343
0.000346
0.000316
0.000313
0.000338
0.000340
0.000340
0.000308
0.000285
0.000323
0.000318
0.000317
0.000277
0.000293
0.000296
0.000311
0.000228
0.000176
0.000201
0.000189
0.000165
0.000167
0.000174
0.000192
0.000147
0.000153
0.000154
0.000158
0.000175
0.000145
0.000172
0.000162
0.000146
0.000017
0.000041
0.000072
0.000022
0.000059
0.000036
-0.000031
0.000014
-0.000019
-0.000012
0.000019
-0.000010
0.000038
0.000040
0.000044
0.000039
-0.000046
-0.000094
-0.000103
-0.000161
-0.000114
-0.000147
-0.000132
-0.000133
-0.000221
-0.000130
-0.000125
-0.000133
-0.000113
-0.000111
-0.000085
-0.000056
-0.000175
-0.000289
-0.000287
-0.000338
-0.000318
-0.000373
-0.000336
-0.000398
-0.000423
-0.000347
-0.000393
-0.000348
-0.000294
-0.000307
-0.000328
-0.000280
-0.000283
-0.000466
-0.000530
-0.000594
-0.000615
-0.000592
-0.000590
-0.000568
-0.000574
-0.000526
-0.000414
-0.000432
-0.000435
-0.000502
-0.000492
-0.000491
-0.000480
-0.000640
-0.000767
-0.000726
-0.000723
-0.000757
-0.000828
-0.000722
-0.000719
-0.000759
-0.000741
-0.000725
-0.000701
-0.000708
-0.000770
-0.000689
-0.000720
-0.000758
-0.000914
-0.000971
-0.000956
-0.000942
-0.000967
-0.000981
-0.000903
-0.000918
-0.000845
-0.000839
-0.000864
-0.000850
-0.000867
-0.000899
-0.000860
-0.000853
-0.001064
-0.001109
-0.001118
-0.001152
-0.001112
-0.001128
-0.001139
-0.001124
-0.001112
-0.001010
-0.000996
-0.001008
-0.001011
-0.001012
-0.001061
-0.001035
-0.001162
-0.001328
-0.001338
-0.001352
-0.001346
-0.001384
-0.001326
-0.001310
-0.001265
-0.001227
-0.001194
-0.001121
-0.001135
-0.001157
-0.001146
-0.001206
-0.001240
-0.001477
-0.001560
-0.001549
-0.001561
-0.001537
-0.001577
-0.001510
-0.001480
-0.001407
-0.001356
-0.001354
-0.001344
-0.001333
-0.001315
-0.001284
-0.001336
-0.001555
-0.001686
-0.001742
-0.001798
-0.001753
-0.001723
-0.001719
-0.001682
-0.001602
-0.001534
-0.001527
-0.001459
-0.001470
-0.001418
-0.001536
-0.001519
-0.001731
-0.002042
-0.002035
-0.002151
-0.002099
-0.002101
-0.002065
-0.002001
-0.001919
-0.001893
-0.001824
-0.001784
-0.001829
-0.001838
-0.001867
-0.001924
-0.001937
-0.002174
-0.002251
-0.002216
-0.002260
-0.002185
-0.002159
-0.002144
-0.002051
-0.002001
-0.001957
-0.001935
-0.001867
-0.001970
-0.002024
-0.002008
-0.002067
-0.002193
-0.002353
-0.002361
-0.002371
-0.002362
-0.002344
-0.002246
-0.002198
-0.002161
-0.002125
-0.002115
-0.002073
-0.002056
-0.002130
-0.002102
-0.002163
-0.002197
-0.002391
-0.002525
-0.002486
-0.002517
-0.002469
-0.002448
-0.002397
-0.002341
-0.002258
-0.002213
-0.002182
-0.002138
-0.002170
-0.002173
-0.002210
-0.002266
-0.002435
-0.002476
-0.002448
-0.002489
-0.002473
-0.002450
-0.002398
-0.002403
-0.002310
-0.002280
-0.002220
-0.002221
-0.002192
-0.002172
-0.002243
-0.002277
-0.002357
-0.002572
-0.002620
-0.002588
-0.002621
-0.002594
-0.002507
-0.002491
-0.002372
-0.002236
-0.002212
-0.002150
-0.002114
-0.002212
-0.002312
-0.002324
-0.002419
-0.002618
-0.002752
-0.002754
-0.002761
-0.002722
-0.002685
-0.002622
-0.002548
-0.002458
-0.002385
-0.002386
-0.002328
-0.002297
-0.002320
-0.002365
-0.002383
-0.002559
-0.002722
-0.002773
-0.002824
-0.002792
-0.002830
-0.002744
-0.002691
-0.002605
-0.002524
-0.002518
-0.002378
-0.002400
-0.002407
-0.002466
-0.002525
-0.002576
-0.002796
-0.002861
-0.002932
-0.002972
-0.002945
-0.002943
-0.002872
-0.002828
-0.002786
-0.002626
-0.002600
-0.002574
-0.002561
-0.002574
-0.002600
-0.002600
-0.002717
-0.002871
-0.002912
-0.002850
-0.002874
-0.002858
-0.002803
-0.002782
-0.002670
-0.002575
-0.002529
-0.002498
-0.002497
-0.002451
-0.002464
-0.002548
-0.002661
-0.002910
-0.003019
-0.003010
-0.003141
-0.003151
-0.003134
-0.003146
-0.003163
-0.003124
-0.003079
-0.003163
-0.003165
-0.003213
-0.003264
-0.003313
-0.003380
-0.003679
-0.003839
-0.003918
-0.004022
-0.004009
-0.004025
-0.003977
-0.003984
-0.003962
-0.003886
-0.003868
-0.003840
-0.003877
-0.003861
-0.003917
-0.003945
-0.004177
-0.004351
-0.004382
-0.004500
-0.004493
-0.004548
-0.004514
-0.004486
-0.004413
-0.004402
-0.004373
-0.004340
-0.004347
-0.004337
-0.004399
-0.004437
-0.004556
-0.004846
-0.005000
-0.005092
-0.005161
-0.005111
-0.005044
-0.005027
-0.005008
-0.004968
-0.004874
-0.004817
-0.004745
-0.004709
-0.004702
-0.004703
-0.004791
-0.004917
-0.005151
-0.005118
-0.005138
-0.005105
-0.005020
-0.004950
-0.004833
-0.004773
-0.004638
-0.004580
-0.004517
-0.004418
-0.004416
-0.004464
-0.004492
-0.004656
-0.004917
-0.004986
-0.005003
-0.005064
-0.005045
-0.005039
-0.005026
-0.005017
-0.004993
-0.004968
-0.005016
-0.004975
-0.005014
-0.005124
-0.005224
-0.005331
-0.005684
-0.005901
-0.005989
-0.006141
-0.006195
-0.006272
-0.006264
-0.006281
-0.006307
-0.006274
-0.006263
-0.006222
-0.006245
-0.006289
-0.006378
-0.006496
-0.006706
-0.007018
-0.007091
-0.007156
-0.007286
-0.007336
-0.007397
-0.007398
-0.007393
-0.007375
-0.007400
-0.007456
-0.007464
-0.007461
-0.007508
-0.007634
-0.007748
-0.008051
-0.008219
-0.008332
-0.008411
-0.008373
-0.008536
-0.008602
-0.008662
-0.008630
-0.008665
-0.008687
-0.008571
-0.008606
-0.008585
-0.008653
-0.008698
-0.008867
-0.008975
-0.008946
-0.009032
-0.008997
-0.009020
-0.008950
-0.008896
-0.008804
-0.008735
-0.008692
-0.008609
-0.008563
-0.008490
-0.008474
-0.008417
-0.008376
-0.008401
-0.008334
-0.008308
-0.008289
-0.008298
-0.008289
-0.008282
-0.008294
-0.008265
-0.008219
-0.008206
-0.008200
-0.008215
-0.008221
-0.008240
-0.008310
-0.008320
-0.008337
-0.008330
-0.008279
-0.008316
-0.008299
-0.008286
-0.008267
-0.008262
-0.008262
-0.008191
-0.008174
-0.008139
-0.008136
-0.008073
-0.008080
-0.008033
-0.007959
-0.007937
-0.007848
-0.007830
-0.007700
-0.007742
-0.007635
-0.007547
-0.007557
-0.007507
-0.007493
-0.007468
-0.007444
-0.007390
-0.007356
-0.007339
-0.007279
-0.007293
-0.007228
-0.007174
-0.007155
-0.007125
-0.007116
-0.007104
-0.007094
-0.007098
-0.007071
-0.007071
-0.007035
-0.006986
-0.007046
-0.006955
-0.006924
-0.006882
-0.006847
-0.006782
-0.006742
-0.006685
-0.006656
-0.006564
-0.006584
-0.006520
-0.006454
-0.006403
-0.006427
-0.006386
-0.006296
-0.006265
-0.006228
-0.006194
-0.006077
-0.006005
-0.005997
-0.006029
-0.005969
-0.005924
-0.005860
-0.005887
-0.005921
-0.005869
-0.005887
-0.005875
-0.005904
-0.005881
-0.005924
-0.005956
-0.005964
-0.005960
-0.005881
-0.005886
-0.005917
-0.005902
-0.005883
-0.005913
-0.005857
-0.005848
-0.005779
-0.005789
-0.005798
-0.005747
-0.005706
-0.005655
-0.005667
-0.005570
-0.005479
-0.005445
-0.005360
-0.005284
-0.005239
-0.005127
-0.005067
-0.004974
-0.004941
-0.004820
-0.004752
-0.004776
-0.004641
-0.004559
-0.004493
-0.004410
-0.004380
-0.004305
-0.004234
-0.004206
-0.004172
-0.004104
-0.004016
-0.004020
-0.004068
-0.004070
-0.004032
-0.004004
-0.003955
-0.004027
-0.003893
-0.003816
-0.003841
-0.003828
-0.003785
-0.003658
-0.003566
-0.003553
-0.003505
-0.003411
-0.003313
-0.003265
-0.003224
-0.003182
-0.003049
-0.002962
-0.003000
-0.002955
-0.002842
-0.002752
-0.002732
-0.002710
-0.002629
-0.002515
-0.002527
-0.002558
-0.002473
-0.002474
-0.002457
-0.002478
-0.002492
-0.002486
-0.002430
-0.002528
-0.002594
-0.002557
-0.002509
-0.002454
-0.002630
-0.002633
-0.002571
-0.002716
-0.002976
-0.003004
-0.003065
-0.002753
-0.003060
-0.003240
-0.003252
-0.002963
-0.003113
-0.003708
-0.003635
-0.003411
-0.002703
-0.002716
-0.002680
-0.002601
-0.002459
-0.002460
-0.002448
-0.002426
-0.002358
-0.002288
-0.002334
-0.002233
-0.002158
-0.002108
-0.002134
-0.002139
-0.002121
-0.002074
-0.002021
-0.002021
-0.002048
-0.001981
-0.002013
-0.002036
-0.002075
-0.001979
-0.001988
-0.002026
-0.002055
-0.002062
-0.001993
-0.002025
-0.002044
-0.002020
-0.001972
-0.001980
-0.001940
-0.001927
-0.001902
-0.001875
-0.001872
-0.001795
-0.001747
-0.001755
-0.001707
-0.001622
-0.001592
-0.001591
-0.001466
-0.001481
-0.001412
-0.001345
-0.001356
-0.001302
-0.001243
-0.001238
-0.001244
-0.001209
-0.001143
-0.001185
-0.001196
-0.001186
-0.001212
-0.001192
-0.001173
-0.001178
-0.001183
-0.001236
-0.001212
-0.001192
-0.001211
-0.001257
-0.001219
-0.001263
-0.001306
-0.001284
-0.001324
-0.001329
-0.001316
-0.001309
-0.001343
-0.001321
-0.001294
-0.001223
-0.001252
-0.001215
-0.001172
-0.001179
-0.001205
-0.001150
-0.001109
-0.001084
-0.001053
-0.001089
-0.001043
-0.001047
-0.000997
-0.000993
-0.000951
-0.000942
-0.000966
-0.000940
-0.000943
-0.000920
-0.000944
-0.000916
-0.000892
-0.000952
-0.000963
-0.000922
-0.000971
-0.000924
-0.000976
-0.000995
-0.000990
-0.001004
-0.000993
-0.001033
-0.001019
-0.001005
-0.000995
-0.000990
-0.001013
-0.001039
-0.001015
-0.000988
-0.000976
-0.001004
-0.001003
-0.000959
-0.000987
-0.000973
-0.000892
-0.000965
-0.000899
-0.000879
-0.000915
-0.000874
-0.000894
-0.000864
-0.000825
-0.000835
-0.000830
-0.000762
-0.000876
-0.000843
-0.000836
-0.000804
-0.000811
-0.000851
-0.000803
-0.000880
-0.000829
-0.000825
-0.000802
-0.000805
-0.000791
-0.000795
-0.000795
-0.000781
-0.000815
-0.000745
-0.000797
-0.000776
-0.000818
-0.000821
-0.000778
-0.000778
-0.000788
-0.000791
-0.000792
-0.000737
-0.000750
-0.000773
-0.000781
-0.000755
-0.000703
-0.000712
-0.000663
-0.000721
-0.000729
-0.000669
-0.000661
-0.000658
-0.000677
-0.000663
-0.000619
-0.000633
-0.000676
-0.000730
-0.000700
-0.000657
-0.000642
-0.000616
-0.000619
-0.000612
-0.000642
-0.000588
-0.000586
-0.000607
-0.000579
-0.000590
-0.000613
-0.000589
-0.000564
-0.000635
-0.000635
-0.000553
-0.000564
-0.000547
-0.000561
-0.000562
-0.000533
-0.000536
-0.000515
-0.000496
-0.000540
-0.000498
-0.000519
-0.000540
-0.000469
-0.000455
-0.000431
-0.000479
-0.000470
-0.000456
-0.000486
-0.000515
-0.000459
-0.000460
-0.000444
-0.000459
-0.000467
-0.000349
-0.000391
-0.000342
-0.000428
-0.000386
-0.000311
-0.000369
-0.000344
-0.000415
-0.000402
-0.000361
-0.000327
-0.000363
-0.000376
-0.000399
-0.000390
-0.000351
-0.000353
-0.000303
-0.000298
-0.000322
-0.000312
-0.000300
-0.000289
-0.000285
-0.000277
-0.000297
-0.000299
-0.000316
-0.000323
-0.000264
-0.000276
-0.000292
-0.000280
-0.000237
-0.000270
-0.000273
-0.000287
-0.000283
-0.000266
-0.000312
-0.000218
-0.000255
-0.000263
-0.000209
-0.000261
-0.000245
-0.000229
-0.000228
-0.000240
-0.000198
-0.000264
-0.000235
-0.000279
-0.000248
-0.000237
-0.000235
-0.000234
-0.000256
-0.000202
-0.000207
-0.000153
-0.000224
-0.000186
-0.000233
-0.000262
-0.000252
-0.000205
-0.000188
-0.000181
-0.000154
-0.000158
-0.000162
-0.000170
-0.000161
-0.000162
-0.000127
-0.000147
-0.000133
-0.000138
-0.000132
-0.000084
-0.000092
-0.000128
-0.000060
-0.000119
-0.000117
-0.000103
-0.000127
-0.000077
-0.000120
-0.000081
-0.000084
-0.000135
-0.000133
-0.000139
-0.000177
-0.000123
-0.000061
-0.000068
-0.000134
-0.000092
-0.000111
-0.000074
-0.000091
-0.000079
-0.000072
-0.000079
-0.000067
-0.000078
-0.000049
-0.000085
-0.000037
-0.000030
-0.000053
-0.000047
-0.000038
-0.000021
-0.000057
-0.000070
-0.000060
-0.000050
-0.000028
-0.000042
0.000010
-0.000009
-0.000039
-0.000052
-0.000020
-0.000011
0.000052
0.000059
0.000026
-0.000003
-0.000006
-0.000025
0.000021
0.000020
-0.000065
-0.000061
-0.000037
0.000034
-0.000037
0.000003
-0.000007
-0.000011
0.000072
0.000031
0.000047
0.000059
0.000065
0.000079
0.000003
0.000078
0.000091
0.000077
0.000114
0.000052
0.000085
0.000062
0.000059
0.000115
0.000051
0.000122
0.000112
0.000056
0.000081
0.000108
0.000118
0.000076
0.000091
0.000082
0.000103
0.000100
0.000097
0.000073
0.000103
0.000137
0.000085
0.000080
0.000063
0.000085
0.000070
0.000094
0.000134
0.000143
0.000149
0.000144
0.000129
0.000115
0.000170
0.000188
0.000145
0.000110
0.000139
0.000079
0.000179
0.000129
0.000037
0.000054
0.000135
0.000160
0.000126
0.000145
0.000120
0.000160
0.000150
0.000167
0.000152
0.000170
0.000182
0.000174
0.000213
0.000193
0.000132
0.000126
0.000196
0.000162
0.000182
0.000153
0.000113
0.000208
0.000227
0.000264
0.000191
0.000183
0.000197
0.000203
0.000233
0.000200
0.000217
0.000246
0.000189
0.000230
0.000167
0.000167
0.000206
0.000198
0.000210
0.000163
0.000191
0.000228
0.000238
0.000236
0.000229
0.000231
0.000265
0.000223
0.000295
0.000262
0.000259
0.000170
0.000212
0.000210
0.000202
0.000257
0.000201
0.000260
0.000221
0.000207
0.000259
0.000268
0.000257
0.000310
0.000281
0.000270
0.000292
0.000334
0.000305
0.000283
0.000287
0.000260
0.000250
0.000313
0.000267
0.000262
0.000298
0.000331
0.000288
0.000296
0.000307
0.000276
0.000332
0.000291
0.000286
0.000299
0.000286
0.000287
0.000322
0.000283
0.000271
0.000259
0.000290
0.000283
0.000276
0.000270
0.000330
0.000289
0.000295
0.000340
0.000354
0.000325
0.000318
0.000347
0.000317
0.000360
0.000346
0.000329
0.000332
0.000322
0.000314
0.000337
0.000320
0.000364
0.000389
0.000369
0.000329
0.000327
0.000364
0.000370
0.000399
0.000356
0.000337
0.000321
0.000374
0.000376
0.000401
0.000371
0.000377
0.000413
0.000385
0.000395
0.000360
0.000377
0.000382
0.000392
0.000397
0.000390
0.000367
0.000371
0.000383
0.000393
0.000397
0.000376
0.000384
0.000426
0.000417
0.000378
0.000391
0.000370
0.000409
0.000366
0.000376
0.000401
0.000408
0.000378
0.000384
0.000418
0.000371
0.000400
0.000406
0.000412
0.000396
0.000427
0.000418
0.000395
0.000382
0.000406
0.000409
0.000381
0.000407
0.000392
0.000437
0.000387
0.000389
0.000386
0.000400
0.000428
0.000408
0.000470
0.000425
0.000470
0.000402
0.000418
0.000438
0.000451
0.000440
0.000362
0.000454
0.000448
0.000474
0.000436
0.000349
0.000466
0.000427
0.000398
0.000472
0.000478
0.000439
0.000439
0.000489
0.000470
0.000424
0.000430
0.000466
0.000450
0.000449
0.000433
0.000473
0.000432
0.000456
0.000468
0.000466
0.000431
0.000447
0.000486
0.000454
0.000475
0.000467
0.000461
0.000473
0.000476
0.000498
0.000488
0.000510
0.000492
0.000456
0.000411
0.000361
0.000369
0.000366
0.000390
0.000362
0.000400
0.000408
0.000413
0.000409
0.000416
0.000406
0.000393
0.000363
0.000407
0.000451
0.000456
0.000516
0.000422
0.000434
0.000411
0.000445
0.000463
0.000454
0.000399
0.000432
0.000432
0.000446
0.000419
0.000450
0.000436
0.000417
0.000483
0.000481
0.000450
0.000406
0.000439
0.000415
0.000468
0.000494
0.000484
0.000440
0.000480
0.000472
0.000409
0.000423
0.000494
0.000514
0.000444
0.000457
0.000478
0.000466
0.000454
0.000532
0.000480
0.000459
0.000468
0.000482
0.000471
0.000435
0.000505
0.000484
0.000498
0.000472
0.000461
0.000479
0.000443
0.000521
0.000505
0.000472
0.000499
0.000525
0.000515
0.000485
0.000518
0.000473
0.000454
0.000504
0.000505
0.000521
0.000535
0.000521
0.000537
0.000516
0.000538
0.000536
0.000538
0.000565
0.000525
0.000508
0.000543
0.000488
0.000538
0.000505
0.000481
0.000555
0.000531
0.000530
0.000531
0.000527
0.000540
0.000516
0.000531
0.000513
0.000539
0.000568
0.000542
0.000535
0.000494
0.000539
0.000508
0.000502
0.000528
0.000544
0.000548
0.000525
0.000539
0.000544
0.000540
0.000543
0.000599
0.000591
0.000556
0.000567
0.000503
0.000539
0.000548
0.000521
0.000515
0.000542
0.000566
0.000569
0.000555
0.000550
0.000559
0.000568
0.000554
0.000587
0.000526
0.000547
0.000546
0.000562
0.000568
0.000294
0.000361
0.000340
0.000626
0.000344
0.000299
0.000246
0.000498
0.000398
-0.000180
-0.000159
-0.000080
0.000634
0.000534
0.000541
0.000569
0.000617
0.000603
0.000589
0.000643
0.000572
0.000605
0.000604
0.000624
0.000609
0.000603
0.000577
0.000580
0.000587
0.000577
0.000594
0.000643
0.000639
0.000588
0.000573
0.000622
0.000600
0.000597
0.000592
0.000592
0.000619
0.000638
0.000595
0.000535
0.000584
0.000571
0.000627
0.000659
0.000599
0.000603
0.000608
0.000582
0.000594
0.000601
0.000538
0.000588
0.000600
0.000580
0.000604
0.000579
0.000596
0.000594
0.000636
0.000621
0.000643
0.000634
0.000591
0.000558
0.000590
0.000635
0.000634
0.000596
0.000580
0.000577
0.000581
0.000595
0.000565
0.000609
0.000584
0.000581
0.000626
0.000594
0.000560
0.000622
0.000647
0.000612
0.000656
0.000661
0.000654
0.000639
0.000645
0.000603
0.000635
0.000605
0.000647
0.000649
0.000614
0.000642
0.000645
0.000623
0.000578
0.000634
0.000603
0.000632
0.000625
0.000647
0.000654
0.000653
0.000647
0.000642
0.000640
0.000586
0.000659
0.000648
0.000663
0.000666
0.000688
0.000688
0.000699
0.000698
0.000643
0.000668
0.000677
0.000639
0.000666
0.000663
0.000626
0.000610
0.000660
0.000610
0.000600
0.000647
0.000647
0.000631
0.000606
0.000639
0.000652
0.000564
0.000564
0.000628
0.000622
0.000605
0.000648
0.000636
0.000651
0.000600
0.000618
0.000658
0.000624
0.000633
0.000585
0.000628
0.000630
0.000650
0.000660
0.000651
0.000618
0.000601
0.000623
0.000607
0.000584
0.000612
0.000628
0.000590
0.000605
0.000619
0.000616
0.000573
0.000634
0.000615
0.000608
0.000689
0.000632
0.000599
0.000653
0.000633
0.000608
0.000645
0.000640
0.000639
0.000613
0.000652
0.000650
0.000623
0.000624
0.000633
0.000645
0.000687
0.000650
0.000616
0.000690
0.000662
0.000610
0.000576
0.000649
0.000631
0.000600
0.000635
0.000633
0.000642
0.000612
0.000635
0.000634
0.000637
0.000625
0.000610
0.000631
0.000646
0.000645
0.000628
0.000614
0.000640
0.000667
0.000677
0.000685
0.000661
0.000633
0.000656
0.000643
0.000662
0.000607
0.000611
0.000691
0.000660
0.000655
0.000665
0.000695
0.000671
0.000663
0.000647
0.000661
0.000670
0.000602
0.000652
0.000672
0.000656
0.000660
0.000640
0.000676
0.000652
0.000657
0.000663
0.000645
0.000723
0.000661
0.000673
0.000683
0.000622
0.000602
0.000694
0.000712
0.000632
0.000602
0.000679
0.000656
0.000618
0.000635
0.000636
0.000624
0.000627
0.000639
0.000623
0.000617
0.000601
0.000668
0.000629
0.000642
0.000643
0.000595
0.000663
0.000629
0.000626
0.000675
0.000630
0.000614
0.000586
0.000630
0.000640
0.000640
0.000674
0.000682
0.000677
0.000672
0.000663
0.000635
0.000690
0.000648
0.000638
0.000625
0.000639
0.000667
0.000621
0.000629
0.000663
0.000649
0.000634
0.000627
0.000668
0.000650
0.000649
0.000661
0.000668
0.000656
0.000610
0.000661
0.000627
0.000628
0.000654
0.000673
0.000672
0.000656
0.000639
0.000633
0.000650
0.000629
0.000648
0.000636
0.000656
0.000622
0.000678
0.000674
0.000628
0.000689
0.000621
0.000644
0.000654
0.000623
0.000654
0.000660
0.000680
0.000641
0.000619
0.000689
0.000661
0.000633
0.000667
0.000678
0.000686
0.000642
0.000669
0.000641
0.000592
0.000640
0.000613
0.000618
0.000661
0.000659
0.000670
0.000659
0.000677
0.000650
0.000661
0.000654
0.000628
0.000676
0.000634
0.000650
0.000670
0.000660
0.000692
0.000665
0.000687
0.000675
0.000675
0.000681
0.000643
0.000621
0.000586
0.000719
0.000714
0.000672
0.000681
0.000658
0.000687
0.000703
0.000717
0.000654
0.000703
0.000700
0.000698
0.000661
0.000644
0.000712
0.000652
0.000650
0.000695
0.000688
0.000708
0.000718
0.000662
0.000703
0.000717
0.000723
0.000670
0.000675
0.000671
0.000669
0.000700
0.000644
0.000666
0.000669
0.000668
0.000665
0.000683
0.000704
0.000689
0.000735
0.000688
0.000698
0.000688
0.000692
0.000698
0.000641
0.000699
0.000694
0.000653
0.000689
0.000680
0.000715
0.000720
0.000714
0.000663
0.000689
0.000702
0.000681
0.000740
0.000711
0.000700
0.000689
0.000675
0.000690
0.000703
0.000723
0.000701
0.000717
0.000711
0.000670
0.000648
0.000775
0.000737
0.000665
0.000708
0.000665
0.000670
0.000654
0.000676
0.000718
0.000677
0.000727
0.000711
0.000714
0.000746
0.000689
0.000683
0.000666
0.000677
0.000661
0.000703
0.000683
0.000679
0.000701
0.000708
0.000672
0.000713
0.000703
0.000651
0.000724
0.000677
0.000683
0.000677
0.000681
0.000663
0.000706
0.000683
0.000636
0.000650
0.000684
0.000688
0.000666
0.000650
0.000648
0.000624
0.000647
0.000646
0.000681
0.000688
0.000662
0.000639
0.000666
0.000714
0.000656
0.000693
0.000652
0.000614
0.000694
0.000673
0.000656
0.000682
0.000687
0.000636
0.000682
0.000714
0.000554
0.000626
0.000668
0.000634
0.000656
0.000625
0.000636
0.000664
0.000673
0.000654
0.000671
0.000672
0.000672
0.000670
0.000678
0.000661
0.000692
0.000679
0.000648
0.000663
0.000702
0.000644
0.000684
0.000671
0.000700
0.000696
0.000685
0.000693
0.000681
0.000694
0.000614
0.000656
0.000695
0.000685
0.000682
0.000652
0.000690
0.000671
0.000698
0.000727
0.000682
0.000716
0.000679
0.000664
0.000716
0.000695
0.000645
0.000679
0.000675
0.000693
0.000631
0.000644
0.000651
0.000685
0.000694
0.000589
0.000662
0.000674
0.000654
0.000611
0.000645
0.000702
0.000710
0.000667
0.000711
0.000691
0.000669
0.000719
0.000670
0.000692
0.000709
0.000675
0.000678
0.000699
0.000666
0.000689
0.000710
0.000687
0.000649
0.000577
0.000623
0.000656
0.000626
0.000645
0.000636
0.000630
0.000622
0.000580
0.000626
0.000603
0.000579
0.000657
0.000639
0.000637
0.000622
0.000656
0.000613
0.000586
0.000611
0.000606
0.000608
0.000610
0.000590
0.000612
0.000588
0.000585
0.000578
0.000567
0.000557
0.000575
0.000608
0.000569
0.000603
0.000593
0.000583
0.000582
0.000578
0.000582
0.000594
0.000594
0.000578
0.000617
0.000591
0.000586
0.000602
0.000594
0.000588
0.000640
0.000571
0.000629
0.000695
0.000646
0.000709
0.000659
0.000691
0.000664
0.000679
0.000679
0.000567
0.000557
0.000552
0.000615
0.000631
0.000594
0.000598
0.000642
0.000639
0.000612
0.000632
0.000618
0.000623
0.000625
0.000594
0.000612
0.000634
0.000606
0.000621
0.000601
0.000601
0.000613
0.000640
0.000618
0.000649
0.000664
0.000576
0.000624
0.000602
0.000623
0.000614
0.000591
0.000622
0.000624
0.000572
0.000615
0.000583
0.000594
0.000595
0.000637
0.000629
0.000628
0.000626
0.000597
0.000596
0.000588
0.000634
0.000613
0.000605
0.000653
0.000654
0.000617
0.000667
0.000644
0.000632
0.000611
0.000635
0.000639
0.000605
0.000625
0.000629
0.000593
0.000653
0.000591
0.000657
0.000653
0.000611
0.000667
0.000610
0.000661
0.000633
0.000580
0.000616
0.000633
0.000669
0.000643
0.000605
0.000674
0.000657
0.000638
0.000643
0.000624
0.000614
0.000615
0.000651
0.000585
0.000656
0.000624
0.000612
0.000591
0.000574
0.000625
0.000582
0.000637
0.000594
0.000601
0.000610
0.000643
0.000589
0.000591
0.000626
0.000614
0.000596
0.000614
0.000620
0.000634
0.000631
0.000606
0.000605
0.000615
0.000590
0.000634
0.000633
0.000573
0.000652
0.000641
0.000620
0.000587
0.000600
0.000641
0.000620
0.000584
0.000585
0.000570
0.000621
0.000614
0.000589
0.000617
0.000612
0.000629
0.000620
0.000641
0.000572
0.000594
0.000605
0.000616
0.000584
0.000569
0.000613
0.000612
0.000597
0.000593
0.000634
0.000592
0.000606
0.000612
0.000596
0.000591
0.000623
0.000618
0.000574
0.000574
0.000598
0.000608
0.000612
0.000622
0.000578
0.000599
0.000579
0.000606
0.000619
0.000625
0.000625
0.000584
0.000573
0.000542
0.000673
0.000821
0.000813
0.000796
0.000824
0.000753
0.000768
0.000791
0.000758
0.000797
0.000808
0.000780
0.000761
0.000706
0.000692
0.000752
0.000777
0.000970
0.001023
0.001023
0.001000
0.001003
0.000940
0.000903
0.000973
0.000938
0.000966
0.000936
0.000892
0.000844
0.000800
0.000816
0.000843
0.001044
0.001157
0.001218
0.001226
0.001176
0.001145
0.001181
0.001232
0.001130
0.001100
0.001045
0.000950
0.000915
0.000866
0.000920
0.000966
0.001145
0.001367
0.001464
0.001503
0.001479
0.001365
0.001377
0.001290
0.001268
0.001241
0.001148
0.001169
0.001117
0.001047
0.001063
0.001130
0.001167
0.001403
0.001486
0.001517
0.001357
0.001300
0.001284
0.001589
0.001265
0.001184
0.001067
0.001199
0.001059
0.000332
0.000375
0.000495
0.001237
0.001539
0.001734
0.001818
0.001855
0.001800
0.001755
0.001673
0.001634
0.001609
0.001576
0.001556
0.001483
0.001445
0.001377
0.001409
0.001422
0.001549
0.001731
0.001808
0.001855
0.001759
0.001754
0.001777
0.001722
0.001733
0.001656
0.001640
0.001549
0.001416
0.001335
0.001267
0.001428
0.001511
0.001805
0.002027
0.002035
0.002011
0.002003
0.001942
0.001916
0.001893
0.001876
0.001778
0.001766
0.001641
0.001538
0.001515
0.001541
0.001615
0.001788
0.002060
0.002082
0.002114
0.002055
0.002034
0.002028
0.002011
0.001967
0.001955
0.001900
0.001811
0.001712
0.001663
0.001619
0.001708
0.001792
0.001946
0.002091
0.002093
0.002092
0.002063
0.002078
0.002022
0.002008
0.001943
0.001920
0.001897
0.001758
0.001754
0.001733
0.001776
0.001861
0.002029
0.002199
0.002255
0.002238
0.002214
0.002199
0.002108
0.002100
0.002096
0.002044
0.001951
0.001887
0.001857
0.001810
0.001889
0.001920
0.002046
0.002422
0.002423
0.002422
0.002434
0.002374
0.002371
0.002293
0.002252
0.002273
0.002228
0.002160
0.002117
0.002122
0.002099
0.002138
0.002212
0.002355
0.002469
0.002429
0.002425
0.002321
0.002297
0.002247
0.002257
0.002260
0.002201
0.002221
0.002183
0.002144
0.002083
0.002140
0.002145
0.002234
0.002383
0.002387
0.002386
0.002348
0.002324
0.002303
0.002248
0.002259
0.002234
0.002164
0.002167
0.002136
0.002153
0.002153
0.002157
0.002193
0.002288
0.002376
0.002356
0.002359
0.002323
0.002287
0.002274
0.002235
0.002235
0.002217
0.002218
0.002175
0.002177
0.002128
0.002164
0.002110
0.002233
0.002317
0.002372
0.002316
0.002264
0.002317
0.002210
0.002280
0.002262
0.002246
0.002240
0.002200
0.002117
0.002138
0.002122
0.002131
0.002112
0.002175
0.002240
0.002199
0.002206
0.002194
0.002150
0.002213
0.002133
0.002111
0.002168
0.002123
0.002068
0.002005
0.002034
0.002070
0.002058
0.002161
0.002228
0.002249
0.002228
0.002151
0.002172
0.002161
0.002176
0.002164
0.002123
0.002115
0.002150
0.002110
0.002082
0.002043
0.002053
0.002067
0.002106
0.002127
0.002109
0.002088
0.002092
0.002117
0.002078
0.002094
0.002113
0.002105
0.002071
0.001997
0.001977
0.002003
0.001977
0.002002
0.002095
0.002086
0.002094
0.002066
0.002053
0.002102
0.002070
0.002070
0.002080
0.002010
0.002015
0.002027
0.002013
0.002004
0.001994
0.001964
0.001976
0.001979
0.001946
0.001940
0.001984
0.001973
0.001965
0.001979
0.001986
0.001956
0.001983
0.002005
0.001948
0.001955
0.001997
0.001930
0.001922
0.001919
0.001877
0.001894
0.001891
0.001917
0.001917
0.001884
0.001891
0.001869
0.001873
0.001886
0.001855
0.001827
0.001842
0.001851
0.001824
0.001822
0.001804
0.001872
0.001890
0.001829
0.001913
0.001817
0.001743
0.001796
0.001763
0.001782
0.001788
0.001762
0.001736
0.001753
0.001719
0.001725
0.001624
0.001591
0.001629
0.001609
0.001571
0.001657
0.001591
0.001585
0.001605
0.001572
0.001594
0.001584
0.001565
0.001550
0.001591
0.001550
0.001548
0.001598
0.001571
0.001576
0.001563
0.001549
0.001503
0.001538
0.001522
0.001522
0.001503
0.001521
0.001538
0.001504
0.001466
0.001468
0.001477
0.001349
0.001415
0.001361
0.001352
0.001365
0.001340
0.001361
0.001348
0.001335
0.001291
0.001319
0.001361
0.001341
0.001318
0.001344
0.001321
0.001330
0.001321
0.001320
0.001330
0.001293
0.001303
0.001322
0.001325
0.001277
0.001274
0.001285
0.001260
0.001245
0.001239
0.001220
0.001255
0.001191
0.001084
0.001139
0.001130
0.001115
0.001110
0.001189
0.001114
0.001090
0.001120
0.001137
0.001135
0.001118
0.001140
0.001063
0.001075
0.001004
0.000929
0.000994
0.000956
0.000904
0.000926
0.000990
0.000916
0.000921
0.000929
0.000908
0.000944
0.000914
0.000952
0.000952
0.000942
0.000972
0.000814
0.000784
0.000835
0.000806
0.000780
0.000765
0.000797
0.000805
0.000838
0.000815
0.000832
0.000841
0.000800
0.000830
0.000777
0.000780
0.000795
0.000665
0.000672
0.000626
0.000606
0.000613
0.000616
0.000646
0.000623
0.000677
0.000660
0.000682
0.000651
0.000668
0.000632
0.000671
0.000654
0.000332
0.000327
0.000305
0.000338
0.000324
0.000321
0.000367
0.000336
0.000384
0.000346
0.000330
0.000386
0.000391
0.000331
0.000308
0.000337
0.000145
0.000140
0.000101
0.000056
0.000100
0.000096
0.000113
0.000128
0.000138
0.000123
0.000190
0.000151
0.000173
0.000184
0.000154
0.000155
0.000083
-0.000007
-0.000023
-0.000027
-0.000045
-0.000042
-0.000082
-0.000084
-0.000039
-0.000011
0.000056
0.000061
0.000070
0.000048
0.000091
0.000013
-0.000033
-0.000193
-0.000301
-0.000238
-0.000276
-0.000314
-0.000255
-0.000247
-0.000210
-0.000219
-0.000191
-0.000110
-0.000103
-0.000121
-0.000157
-0.000186
-0.000182
-0.000303
-0.000512
-0.000475
-0.000495
-0.000510
-0.000481
-0.000451
-0.000408
-0.000382
-0.000397
-0.000311
-0.000305
-0.000315
-0.000354
-0.000337
-0.000311
-0.000420
-0.000504
-0.000463
-0.000566
-0.000604
-0.000601
-0.000566
-0.000534
-0.000560
-0.000442
-0.000423
-0.000405
-0.000390
-0.000441
-0.000400
-0.000427
-0.000494
-0.000603
-0.000721
-0.000737
-0.000825
-0.000801
-0.000763
-0.000735
-0.000713
-0.000679
-0.000643
-0.000641
-0.000573
-0.000568
-0.000572
-0.000584
-0.000572
-0.000694
-0.000882
-0.000940
-0.000978
-0.000929
-0.000971
-0.000956
-0.000867
-0.000900
-0.000833
-0.000781
-0.000723
-0.000759
-0.000754
-0.000720
-0.000804
-0.000797
-0.000962
-0.001090
-0.001113
-0.001155
-0.001148
-0.001143
-0.001138
-0.001109
-0.001075
-0.001003
-0.000987
-0.000933
-0.000919
-0.000930
-0.000978
-0.000978
-0.001088
-0.001219
-0.001250
-0.001309
-0.001263
-0.001343
-0.001282
-0.001215
-0.001219
-0.001157
-0.001171
-0.001123
-0.001091
-0.001113
-0.001085
-0.001142
-0.001107
-0.001338
-0.001434
-0.001397
-0.001433
-0.001401
-0.001467
-0.001350
-0.001329
-0.001289
-0.001257
-0.001257
-0.001239
-0.001271
-0.001271
-0.001220
-0.001260
-0.001295
-0.001297
-0.001336
-0.001306
-0.001337
-0.001339
-0.001310
-0.001286
-0.001264
-0.001234
-0.001222
-0.001226
-0.001204
-0.001168
-0.001216
-0.001205
-0.001223
-0.001320
-0.001357
-0.001346
-0.001346
-0.001356
-0.001325
-0.001339
-0.001310
-0.001319
-0.001321
-0.001271
-0.001212
-0.001235
-0.001254
-0.001243
-0.001255
-0.001260
-0.001235
-0.001271
-0.001284
-0.001246
-0.001306
-0.001260
-0.001225
-0.001244
-0.001237
-0.001233
-0.001256
-0.001223
-0.001198
-0.001262
-0.001200
-0.001218
-0.001237
-0.001243
-0.001261
-0.001214
-0.001163
-0.001198
-0.001195
-0.001196
-0.001197
-0.001187
-0.001235
-0.001152
-0.001194
-0.001185
-0.001160
-0.001178
-0.001113
-0.001166
-0.001173
-0.001188
-0.001203
-0.001158
-0.001148
-0.001121
-0.001119
-0.001154
-0.001121
-0.001140
-0.001083
-0.001070
-0.001057
-0.001091
-0.001081
-0.001048
-0.001092
-0.001046
-0.001097
-0.001092
-0.001094
-0.001125
-0.001091
-0.001120
-0.001093
-0.001109
-0.001100
-0.001132
-0.001103
-0.001086
-0.001098
-0.001128
-0.001140
-0.001133
-0.001164
-0.001153
-0.001151
